0
48.1875
50.5625
52.3125
51.9375
50.4375
48.1875
43.0
35.8125
31.1875
32.375
36.625
39.125
39.25
39.125
39.3125
39.5625
39.0625
37.6875
36.375
35.75
34.8125
32.875
30.375
28.0
26.9375
27.9375
30.125
32.0
33.375
34.5625
35.0
34.1875
32.625
31.125
30.1875
29.5
28.5625
27.1875
25.5
24.375
24.9375
25.9375
26.1875
26.75
28.25
29.5
31.4375
43.5625
75.6875
114.375
134.6875
134.5625
127.625
119.0
106.9375
92.4375
79.3125
69.0625
60.5
52.9375
47.375
45.3125
46.125
47.8125
49.25
50.625
51.625
51.5625
50.4375
48.1875
45.625
43.6875
42.6875
42.0625
41.125
40.5
40.375
40.5625
40.1875
39.375
38.6875
38.4375
38.25
37.375
36.0
34.75
33.9375
33.375
32.75
32.0
31.25
30.875
31.0625
31.625
31.9375
31.375
30.4375
30.375
31.4375
32.0625
31.5
30.5625
29.5625
28.6875
27.75
26.9375
26.5
27.0625
29.875
38.9375
61.75
96.3125
125.5625
137.5
137.3125
131.3125
122.0
110.625
98.3125
85.6875
73.375
63.0625
56.375
53.125
51.375
50.25
50.0625
51.125
52.0625
51.375
48.9375
46.4375
45.8125
46.1875
45.9375
44.4375
42.75
41.625
41.125
40.9375
40.0625
38.5
37.375
37.625
38.25
37.0625
34.8125
35.3125
37.4375
36.75
32.25
28.5
30.625
36.25
38.625
35.125
30.25
29.125
31.0
31.6875
30.0625
28.625
28.625
30.125
38.25
62.3125
97.5625
123.4375
132.3125
133.1875
130.3125
122.0625
108.8125
94.0625
81.0625
70.5625
62.0
55.5
50.6875
47.875
47.4375
48.1875
49.0
49.25
49.1875
48.75
48.125
47.4375
46.625
45.625
44.4375
43.0625
41.75
40.5
39.3125
38.3125
37.4375
36.875
36.5
36.25
36.0
35.75
35.4375
35.1875
34.8125
34.375
33.8125
33.1875
32.5625
32.0625
31.6875
31.375
31.125
30.875
30.6875
30.5
30.3125
30.25
30.125
30.0
29.8125
29.5625
29.5625
31.875
44.75
76.5625
113.25
131.9375
133.0625
127.9375
119.625
107.3125
93.0
80.5
71.3125
64.25
58.125
53.0625
49.9375
48.875
48.8125
48.8125
48.6875
48.625
48.4375
47.8125
47.0
46.125
45.1875
44.3125
43.375
42.4375
41.5625
40.6875
39.8125
38.9375
38.0625
37.3125
36.5625
35.9375
35.4375
35.0625
34.625
34.3125
34.0625
33.6875
33.3125
32.875
32.625
32.375
32.0625
31.6875
31.25
30.875
30.5625
30.3125
30.0625
29.875
29.625
29.375
29.125
28.9375
28.6875
28.5625
30.0
39.375
66.5
105.4375
132.5625
139.25
137.0625
131.6875
121.1875
106.4375
92.125
81.0
72.1875
64.4375
57.75
52.875
50.3125
49.625
49.6875
49.75
49.6875
49.4375
48.9375
48.1875
47.3125
46.375
45.4375
44.375
43.375
42.4375
41.5
40.625
39.75
39.0
38.1875
37.5
36.875
36.375
35.9375
35.5625
35.125
34.6875
34.25
33.875
33.4375
33.0625
32.8125
32.5
32.1875
31.9375
31.5625
31.25
30.875
30.5
30.1875
29.9375
29.6875
29.4375
29.0625
28.6875
28.4375
28.1875
27.9375
27.8125
28.125
32.0625
49.5625
85.875
122.6875
138.5625
138.3125
133.25
124.0625
110.0
94.625
82.0625
72.6875
65.0625
58.4375
53.25
50.3125
49.4375
49.5625
49.5625
49.4375
49.1875
48.75
48.0625
47.1875
46.25
45.3125
44.3125
43.25
42.25
41.25
40.375
39.4375
38.5625
37.8125
37.1875
36.6875
36.1875
35.8125
35.375
34.9375
34.5
34.0625
33.8125
33.4375
33.125
32.75
32.4375
32.0625
31.6875
31.375
31.125
30.9375
30.5625
30.25
29.9375
29.75
29.625
29.4375
29.25
29.0625
28.8125
28.6875
29.0
32.375
47.375
79.6875
114.4375
132.3125
134.875
130.375
120.8125
107.5625
93.5625
81.3125
71.3125
63.125
56.5
51.4375
48.1875
47.0625
47.4375
48.0
48.1875
48.3125
48.1875
47.75
47.0625
46.25
45.3125
44.25
43.125
42.125
41.1875
40.375
39.5625
38.75
38.0
37.3125
36.6875
36.125
35.625
35.1875
34.8125
34.4375
34.0625
33.625
33.25
32.875
32.5
32.125
31.8125
31.5
31.25
30.9375
30.625
30.3125
30.125
29.875
29.625
29.375
29.25
29.0
28.8125
29.4375
35.25
56.0
92.0625
124.5
137.875
138.0
134.125
126.8125
115.4375
101.6875
88.5625
77.5625
68.5
61.0625
55.1875
51.4375
50.0
49.8125
49.9375
49.875
49.75
49.375
48.75
47.9375
47.0625
46.125
45.125
44.125
43.1875
42.25
41.375
40.4375
39.5
38.6875
37.9375
37.25
36.75
36.3125
35.875
35.4375
35.0
34.5625
34.25
33.875
33.5
33.125
32.8125
32.5
32.1875
31.875
31.5
31.1875
30.875
30.5625
30.375
30.0
29.6875
29.375
29.0625
29.0
31.1875
43.375
73.9375
111.4375
133.1875
136.9375
133.8125
127.125
115.6875
101.375
87.9375
77.1875
68.5625
61.25
55.125
51.0625
49.375
49.125
49.125
49.125
49.0625
48.875
48.3125
47.4375
46.625
45.8125
44.875
43.8125
42.75
41.8125
40.9375
40.0625
39.25
38.5
37.8125
37.125
36.625
36.125
35.625
35.1875
34.8125
34.375
33.875
33.5625
33.1875
32.9375
32.6875
32.4375
32.0
31.625
31.25
30.9375
30.6875
30.4375
30.125
29.875
29.75
29.5
29.375
29.75
33.625
50.4375
84.5
118.4375
133.6875
133.5625
127.6875
118.8125
106.625
92.625
80.1875
70.6875
63.1875
56.75
51.8125
49.125
48.4375
48.75
49.0625
49.125
49.125
48.875
48.25
47.375
46.4375
45.4375
44.4375
43.5625
42.625
41.75
40.8125
39.875
38.9375
38.1875
37.5625
36.875
36.3125
35.875
35.5
35.125
34.75
34.375
34.0
33.625
33.3125
33.0
32.5
32.0625
31.625
31.3125
31.0
30.75
30.5625
30.375
30.1875
29.875
29.75
29.5625
29.875
33.75
50.4375
84.8125
120.0625
137.0
138.625
134.5
127.0
115.6875
101.6875
88.3125
77.4375
68.6875
61.3125
55.4375
51.4375
49.875
49.8125
50.0625
50.25
50.1875
49.8125
49.125
48.375
47.4375
46.375
45.375
44.3125
43.3125
42.3125
41.375
40.5
39.6875
38.9375
38.25
37.625
37.125
36.6875
36.25
35.8125
35.4375
35.0
34.4375
34.0625
33.75
33.375
33.0
32.625
32.3125
32.0
31.75
31.4375
31.0625
30.6875
30.375
30.0625
29.875
29.5
29.3125
30.4375
38.5625
64.125
102.75
131.0625
138.6875
136.125
130.3125
120.0625
105.875
91.6875
80.0625
70.8125
63.0625
56.6875
52.3125
50.4375
50.25
50.4375
50.4375
50.3125
49.9375
49.375
48.5
47.625
46.6875
45.75
44.8125
43.75
42.6875
41.75
40.8125
39.9375
39.1875
38.4375
37.75
37.1875
36.6875
36.25
35.875
35.4375
34.9375
34.5625
34.1875
33.8125
33.5
33.125
32.8125
32.5625
32.1875
31.8125
31.5625
31.375
31.125
30.9375
30.6875
30.4375
30.1875
30.0
31.4375
40.9375
68.125
105.8125
131.25
137.1875
133.375
125.75
114.5
100.3125
86.5625
75.5625
67.0625
60.0
54.3125
50.375
48.875
49.0
49.4375
49.5
49.5625
49.5
49.0
48.1875
47.25
46.3125
45.4375
44.4375
43.375
42.375
41.4375
40.5
39.6875
38.875
38.1875
37.625
37.0625
36.5625
36.125
35.75
35.375
34.875
34.375
34.125
33.8125
33.5
33.0625
32.625
32.3125
32.0625
31.8125
31.5
31.25
31.0
30.75
30.4375
30.125
30.0
31.5
41.1875
68.8125
107.5625
134.25
141.0625
139.5
134.625
124.1875
109.125
93.9375
81.875
72.5625
64.8125
58.1875
53.4375
51.125
50.75
50.9375
50.9375
50.9375
50.6875
50.1875
49.4375
48.5625
47.625
46.625
45.5625
44.5625
43.4375
42.4375
41.4375
40.5625
39.75
39.0625
38.4375
37.875
37.375
36.875
36.375
35.9375
35.5
35.1875
34.8125
34.5
34.125
33.6875
33.375
33.0
32.6875
32.3125
32.0625
31.75
31.5
31.1875
30.9375
30.6875
31.375
37.3125
58.8125
95.5625
127.0625
139.6875
140.0
134.5625
124.5625
110.6875
95.6875
82.75
72.6875
64.5625
57.875
52.9375
50.5625
50.25
50.5625
50.6875
50.8125
50.6875
50.1875
49.4375
48.4375
47.4375
46.375
45.3125
44.3125
43.3125
42.3125
41.4375
40.5625
39.75
39.0
38.3125
37.6875
37.1875
36.75
36.375
36.0625
35.6875
35.1875
34.75
34.375
34.0
33.75
33.4375
33.0625
32.8125
32.5
32.125
31.6875
31.4375
31.25
31.0625
31.0
31.9375
39.25
63.5625
101.6875
130.3125
139.0
137.125
131.25
120.8125
106.9375
92.75
80.5
70.6875
62.6875
56.3125
51.9375
50.0625
50.125
50.625
50.9375
51.125
51.0625
50.6875
50.0625
49.25
48.3125
47.375
46.25
45.0
44.0625
43.1875
42.125
41.1875
40.5
39.6875
39.0
38.4375
37.9375
37.5
37.125
36.75
36.3125
35.75
35.1875
34.6875
34.25
33.8125
33.4375
33.1875
33.0625
32.9375
32.625
32.0625
31.625
31.5
31.5625
31.6875
34.0
46.9375
78.8125
117.0
139.4375
144.25
141.75
134.875
122.9375
107.5
92.4375
80.6875
71.75
64.25
57.8125
53.5
51.875
51.9375
52.1875
52.0625
51.9375
51.625
51.125
50.375
49.375
48.3125
47.0625
45.75
44.4375
43.4375
42.75
42.125
41.3125
40.5625
39.6875
38.9375
38.25
37.8125
37.4375
37.125
36.8125
36.3125
35.625
34.9375
34.3125
33.8125
33.625
33.4375
33.5
33.625
33.75
33.5
32.9375
32.125
31.4375
30.9375
30.8125
33.0
44.8125
75.375
113.8125
137.1875
142.8125
140.75
133.5625
121.375
106.3125
91.875
80.25
71.1875
63.4375
57.1875
53.1875
51.6875
51.75
51.9375
51.875
51.5625
50.9375
50.125
49.25
48.4375
47.6875
46.875
45.8125
44.6875
43.5625
42.5
41.5625
40.625
39.8125
39.125
38.4375
37.875
37.375
37.0
36.625
36.0625
35.625
35.25
34.8125
34.5625
34.3125
34.125
33.75
33.25
32.875
32.625
32.25
31.75
31.3125
31.0625
30.9375
30.8125
31.125
35.625
54.5625
91.0
124.1875
137.9375
138.5625
133.3125
123.3125
109.4375
94.75
82.0
72.0
63.9375
57.4375
52.9375
50.9375
50.75
50.9375
51.125
51.25
51.375
51.125
50.5
49.6875
48.75
47.6875
46.5625
45.4375
44.4375
43.4375
42.4375
41.4375
40.5
39.75
39.1875
38.75
38.3125
37.875
37.375
36.9375
36.5
35.9375
35.4375
34.9375
34.5
34.125
33.6875
33.3125
33.0625
32.75
32.5
32.1875
31.9375
31.75
31.5
31.3125
32.0
38.375
61.125
99.9375
132.1875
143.8125
143.4375
138.75
129.6875
116.3125
101.625
88.1875
77.1875
68.3125
61.25
55.6875
52.375
51.5625
51.8125
52.0625
52.0625
51.9375
51.4375
50.75
49.9375
48.9375
47.875
46.8125
45.8125
44.8125
43.8125
42.8125
41.875
40.875
40.125
39.375
38.75
38.25
37.75
37.3125
36.8125
36.4375
36.0
35.5
35.0625
34.75
34.4375
34.125
33.75
33.4375
33.0625
32.75
32.4375
32.125
31.8125
31.5625
31.375
31.3125
32.8125
42.625
71.0625
111.25
139.3125
146.375
142.5
134.625
123.125
108.5625
94.125
82.125
72.5
64.4375
58.0
53.5625
51.75
51.6875
52.0625
52.1875
52.1875
51.9375
51.375
50.5
49.5
48.375
47.25
46.125
45.0
43.9375
43.0
42.0625
41.125
40.25
39.4375
38.75
38.25
37.6875
37.1875
36.875
36.4375
36.0625
35.6875
35.3125
34.8125
34.375
34.0625
33.6875
33.375
33.0625
32.75
32.4375
32.125
31.875
31.8125
34.0
46.0625
76.625
113.5
134.6875
139.375
136.8125
129.375
117.0625
102.4375
88.6875
77.1875
67.8125
60.25
54.3125
50.875
50.0625
50.6875
51.25
51.4375
51.375
50.9375
50.3125
49.4375
48.5
47.5
46.5
45.5625
44.625
43.6875
42.8125
42.0625
41.4375
40.9375
40.4375
39.875
39.3125
38.75
38.25
37.6875
37.1875
36.6875
36.3125
36.0
35.5625
35.125
34.75
34.375
34.0
33.625
33.3125
32.9375
32.625
32.375
32.125
32.8125
39.5
62.9375
102.0
134.25
146.125
145.375
139.5625
129.0
114.5625
99.0625
85.375
74.4375
65.875
59.125
54.25
51.9375
51.625
52.0
52.1875
52.1875
52.0625
51.5625
50.8125
49.875
48.6875
47.5
46.375
45.3125
44.375
43.4375
42.5625
41.6875
40.75
39.9375
39.1875
38.5625
38.125
37.6875
37.25
36.875
36.375
35.9375
35.5
35.0625
34.6875
34.375
34.0625
33.75
33.4375
33.0625
32.75
32.4375
32.0625
31.75
31.5625
31.375
31.625
35.1875
52.0
88.0625
125.8125
144.0625
145.75
142.5625
136.3125
124.9375
109.5
94.5
82.6875
73.4375
65.5625
59.0
54.8125
53.3125
53.3125
53.4375
53.4375
53.25
52.75
52.0
51.125
50.0625
48.9375
47.75
46.5625
45.4375
44.375
43.375
42.4375
41.5
40.5625
39.6875
39.0
38.4375
37.9375
37.5
37.0625
36.6875
36.25
35.875
35.4375
34.9375
34.5
34.0625
33.75
33.375
33.0625
32.8125
32.5
32.125
31.8125
31.5
31.3125
31.125
31.125
32.75
43.4375
73.5625
113.625
139.125
145.3125
142.4375
134.625
122.1875
107.125
92.6875
80.9375
71.3125
63.4375
57.1875
53.1875
51.875
52.25
52.5625
52.5
52.3125
51.9375
51.25
50.3125
49.3125
48.1875
47.0625
45.8125
44.625
43.625
42.6875
41.8125
41.0
40.1875
39.4375
38.8125
38.1875
37.6875
37.1875
36.75
36.375
36.0625
35.8125
35.5
35.25
35.0
34.8125
34.625
34.4375
34.3125
34.125
33.9375
33.625
33.25
32.9375
32.625
32.375
32.1875
32.1875
34.0
45.1875
74.6875
113.5
139.375
145.9375
142.6875
134.75
122.0625
106.5625
91.875
80.125
70.8125
62.9375
56.5625
52.3125
50.6875
50.75
51.125
51.3125
51.375
51.25
50.8125
50.0625
49.125
48.0625
46.9375
45.8125
44.6875
43.6875
42.6875
41.8125
41.0
40.25
39.4375
38.6875
38.125
37.625
37.1875
36.75
36.375
36.0
35.5625
35.1875
34.75
34.3125
33.9375
33.5625
33.3125
33.0
32.6875
32.375
32.0625
31.75
31.5
31.1875
30.9375
30.75
30.5625
31.0625
36.375
57.5
96.5
131.8125
146.3125
146.8125
143.3125
135.8125
122.8125
107.25
93.375
82.4375
73.25
65.0625
58.5
54.375
52.75
52.5625
52.75
52.8125
52.625
52.125
51.375
50.4375
49.4375
48.375
47.25
46.1875
45.0625
44.0625
43.1875
42.3125
41.4375
40.625
39.875
39.125
38.5625
38.0
37.5
37.0
36.625
36.25
35.8125
35.375
34.875
34.4375
34.0625
33.6875
33.3125
32.9375
32.625
32.25
31.875
31.625
31.375
31.0625
30.8125
30.625
30.4375
30.25
30.0
30.6875
37.375
61.25
100.625
132.1875
143.25
141.6875
134.9375
123.875
110.0
95.6875
83.25
73.125
64.8125
58.0
53.3125
51.25
51.1875
51.6875
51.9375
51.8125
51.625
51.0625
50.125
49.0625
47.9375
46.75
45.6875
44.6875
43.75
42.8125
41.875
40.9375
40.125
39.25
38.5625
37.875
37.375
37.0
36.625
36.25
35.9375
35.5
35.0
34.5625
34.1875
33.875
33.5625
33.25
32.9375
32.625
32.25
32.0
31.8125
31.625
31.375
31.1875
31.0
30.875
30.75
30.6875
31.5
36.8125
56.6875
92.5
124.75
137.9375
138.0
133.0625
123.5625
109.875
94.875
81.6875
71.625
63.875
57.625
53.0
50.75
50.6875
51.1875
51.1875
50.875
50.6875
50.375
49.625
48.625
47.625
46.75
45.6875
44.375
43.1875
42.25
41.5
40.6875
39.875
39.1875
38.5
37.8125
37.25
36.8125
36.375
36.0
35.5
35.125
34.75
34.4375
34.0
33.5
33.0
32.625
32.3125
32.0625
31.9375
31.9375
31.75
31.1875
30.6875
30.375
30.3125
30.1875
30.0
30.875
37.5625
60.375
98.375
130.25
143.5
145.125
140.3125
130.5
117.5625
103.3125
89.5625
78.0625
69.125
62.0
56.4375
53.1875
52.125
52.1875
52.375
52.3125
52.0625
51.625
50.75
49.6875
48.5
47.4375
46.3125
45.0625
44.0625
43.375
42.5625
41.5625
40.5
39.75
39.1875
38.5625
37.9375
37.4375
37.0
36.5
35.9375
35.4375
35.0
34.625
34.25
33.875
33.5
33.25
33.0
32.8125
32.5
32.125
31.6875
31.375
31.0625
30.75
30.4375
30.1875
29.9375
29.75
29.5
29.75
33.6875
51.1875
87.125
123.3125
139.8125
140.875
137.1875
129.3125
116.0
100.5
87.0625
76.75
68.3125
61.0
55.25
51.9375
50.875
50.8125
50.875
50.8125
50.75
50.5625
49.8125
48.875
47.875
46.8125
45.6875
44.625
43.625
42.625
41.75
40.8125
40.0
39.1875
38.375
37.75
37.1875
36.6875
36.25
35.9375
35.5
35.1875
34.8125
34.3125
33.875
33.5
33.125
32.8125
32.5625
32.25
31.9375
31.5625
31.25
31.0
30.8125
30.5625
30.3125
30.125
29.9375
30.0625
32.8125
46.9375
79.0
114.4375
133.25
136.125
132.625
125.0625
112.875
98.375
85.0
74.3125
65.8125
58.75
53.3125
50.0625
49.3125
49.8125
50.3125
50.375
50.3125
50.0625
49.4375
48.5625
47.5625
46.5625
45.625
44.6875
43.6875
42.75
41.75
40.9375
40.0625
39.25
38.5
37.75
37.25
36.75
36.375
35.875
35.375
34.875
34.375
33.9375
33.5625
33.3125
33.0
32.6875
32.4375
32.125
31.8125
31.5
31.1875
30.9375
30.6875
30.4375
30.4375
32.6875
45.0
75.375
112.5
134.8125
140.375
138.8125
132.625
121.4375
106.8125
92.4375
80.875
72.0
64.4375
58.0
53.3125
51.1875
50.75
50.6875
50.625
50.5
50.1875
49.6875
48.9375
48.0625
47.125
46.0625
45.0
44.0
43.0625
42.125
41.1875
40.3125
39.4375
38.6875
38.0
37.375
36.875
36.4375
36.0625
35.625
35.1875
34.75
34.3125
33.9375
33.5625
33.25
32.9375
32.625
32.3125
32.0
31.6875
31.375
31.0625
30.75
30.5
30.3125
30.0625
29.9375
30.9375
38.75
63.75
102.25
131.3125
140.3125
138.625
132.75
122.5
108.5
94.125
81.9375
72.125
63.875
57.25
52.5625
50.3125
49.9375
50.125
50.1875
50.0625
49.9375
49.4375
48.6875
47.8125
46.8125
45.8125
44.75
43.75
42.75
41.8125
40.9375
40.125
39.3125
38.5
37.75
37.125
36.625
36.1875
35.75
35.375
35.0
34.625
34.25
33.875
33.375
33.0
32.6875
32.4375
32.125
31.8125
31.4375
31.1875
30.9375
30.6875
30.375
30.125
29.875
29.625
29.4375
29.25
29.0
28.875
29.4375
34.6875
55.3125
92.875
125.9375
138.1875
136.3125
129.5
119.0625
105.5
91.25
78.75
70.25
63.875
56.5
50.5
48.6875
49.25
49.75
49.75
49.625
49.875
49.8125
49.4375
46.875
41.0625
45.5
50.5
41.875
38.4375
44.0
46.1875
44.6875
43.0
39.9375
36.625
35.375
35.125
34.5625
34.0625
34.25
34.5625
34.375
33.9375
33.625
33.375
33.375
33.3125
33.25
33.1875
33.0625
32.625
32.0
31.1875
30.25
29.3125
28.875
28.625
28.875
31.9375
46.3125
78.8125
116.0625
137.125
141.375
138.625
132.0
121.625
107.8125
93.375
81.0625
71.375
63.375
56.75
52.3125
50.5
50.25
50.375
50.5
50.5
50.1875
49.6875
49.0625
48.25
47.25
46.25
45.0625
43.8125
42.8125
41.875
41.0
40.0625
39.25
38.6875
38.0625
37.25
36.5625
36.125
36.0
36.0625
35.8125
35.3125
34.625
33.875
33.25
32.8125
32.6875
32.625
32.3125
31.8125
31.5
30.9375
30.375
30.6875
31.3125
31.125
30.1875
29.3125
30.3125
40.4375
69.0
107.4375
132.625
138.9375
136.75
130.625
119.8125
105.0625
90.4375
79.0
70.1875
62.5
56.0
51.6875
50.125
50.0
50.0625
49.9375
49.6875
49.375
48.75
48.0
47.1875
46.4375
45.5
44.4375
43.3125
42.3125
41.375
40.375
39.5
38.75
38.125
37.4375
36.75
36.25
35.8125
35.375
34.875
34.25
33.75
33.5
33.5625
33.5625
33.125
32.5
31.875
31.5625
31.3125
30.9375
30.6875
30.5
30.4375
30.375
30.0625
29.5
29.125
29.0625
29.0625
29.375
32.8125
49.1875
83.8125
119.1875
135.875
137.4375
133.0625
123.6875
109.8125
94.625
81.5
71.4375
63.4375
56.875
52.125
49.5
49.0
49.25
49.4375
49.4375
49.3125
49.0
48.5
47.75
46.8125
45.8125
44.875
43.6875
42.625
41.75
41.0625
40.3125
39.4375
38.5625
37.75
37.0
36.375
35.8125
35.3125
34.875
34.5
34.25
34.0625
33.75
33.3125
32.875
32.5
32.25
32.0
31.75
31.3125
30.9375
30.5625
30.8125
34.8125
51.25
83.75
117.0
134.0625
136.6875
133.8125
127.5625
116.75
102.6875
88.75
77.3125
68.3125
60.9375
55.0
51.25
50.0
50.0
50.125
50.0625
49.875
49.5
48.9375
48.3125
47.375
46.375
45.25
44.1875
43.1875
42.3125
41.5625
40.6875
39.8125
38.9375
38.125
37.75
37.375
36.5
35.8125
35.6875
35.375
34.75
34.3125
34.125
33.8125
33.375
33.0
32.75
33.0
33.0
32.375
31.625
30.8125
30.0
29.9375
30.0
30.875
38.25
63.625
103.1875
133.1875
142.9375
140.8125
133.75
123.8125
110.4375
95.25
81.6875
71.25
63.5
57.4375
52.9375
50.8125
50.5
50.3125
50.0
49.8125
49.75
49.6875
49.125
47.75
46.375
45.5
44.9375
44.0
42.9375
41.9375
40.875
39.875
39.0
38.25
37.6875
37.125
36.625
36.125
35.75
35.375
35.0
34.5625
33.9375
33.375
33.125
33.3125
33.25
32.75
32.0
31.4375
31.125
30.9375
30.6875
30.4375
30.1875
30.0
29.75
29.5625
29.625
30.0625
33.0
47.8125
82.1875
119.0625
136.1875
136.9375
131.9375
122.875
109.125
93.4375
80.1875
70.5625
63.0625
56.5625
51.875
49.75
49.6875
50.25
50.6875
50.9375
50.8125
50.25
49.375
48.4375
47.5
46.625
45.5625
44.4375
43.125
41.8125
41.0
40.3125
39.375
38.5625
38.0625
37.8125
37.625
37.25
36.625
35.75
34.9375
34.375
34.0
33.6875
33.3125
33.0
32.875
32.75
32.625
32.4375
32.0625
31.4375
30.9375
30.625
30.4375
30.1875
30.0
29.75
29.5625
29.4375
30.375
38.125
63.125
102.25
132.5
142.4375
140.875
134.8125
124.4375
110.125
95.1875
82.8125
73.375
65.5625
58.6875
53.375
50.5
49.875
50.0
50.25
50.375
50.25
49.8125
49.1875
48.3125
47.375
46.375
45.375
44.3125
43.25
42.1875
41.25
40.3125
39.5625
38.8125
38.125
37.75
37.25
36.1875
35.8125
36.1875
35.9375
35.0
34.1875
33.8125
33.6875
33.375
32.9375
32.4375
32.0625
31.875
31.75
31.5
31.1875
30.875
30.5625
30.3125
30.0
29.6875
29.3125
29.0625
28.75
28.9375
32.625
49.625
85.6875
122.4375
139.5625
140.625
136.1875
128.1875
115.125
99.4375
85.5625
74.9375
66.5
59.375
53.8125
50.4375
49.4375
49.6875
50.0
50.0625
50.0
49.6875
49.0
48.125
47.1875
46.125
44.9375
43.8125
42.6875
41.6875
40.8125
40.0
39.25
38.4375
37.75
37.25
36.75
36.3125
35.8125
35.375
35.125
34.8125
34.4375
34.0625
33.75
33.375
32.9375
32.625
32.375
32.0625
31.6875
31.375
31.0625
30.8125
30.5625
30.25
30.0625
29.8125
29.625
29.4375
29.25
29.0
28.8125
29.6875
36.5
59.6875
97.1875
126.875
136.625
134.8125
128.0
116.4375
101.6875
87.3125
75.875
67.1875
60.0625
54.25
50.1875
48.5
48.5625
49.0
49.1875
49.25
49.125
48.8125
48.25
47.375
46.4375
45.5
44.625
43.75
42.75
41.75
40.8125
40.0
39.1875
38.4375
37.75
37.1875
36.625
36.125
35.5625
35.0
34.5625
34.1875
33.875
33.5625
33.25
32.9375
32.625
32.3125
32.0625
31.6875
31.375
31.125
30.75
30.5
30.1875
29.875
29.5625
29.3125
29.0625
28.9375
28.8125
28.75
29.625
36.875
60.5625
99.0
130.5625
142.5625
142.5625
137.5625
129.0
116.875
102.6875
89.5625
78.8125
70.0625
62.6875
56.875
53.125
51.625
51.25
51.1875
51.125
50.9375
50.5
49.8125
48.9375
48.0625
47.0625
46.0625
45.0
43.9375
43.0
42.125
41.25
40.375
39.5625
38.8125
38.125
37.5625
37.0625
36.5625
36.125
35.75
35.3125
34.9375
34.4375
34.0625
33.75
33.4375
33.0625
32.75
32.375
32.0625
31.75
31.4375
31.125
30.8125
30.5625
30.4375
30.1875
29.875
29.5625
29.5625
31.875
44.75
75.875
113.6875
136.0
140.1875
136.375
128.625
116.75
102.125
88.3125
77.4375
68.875
61.4375
55.3125
51.4375
50.0625
50.0625
50.125
50.0625
50.0625
49.8125
49.0
47.8125
46.8125
46.0
45.5
44.9375
44.3125
43.75
43.125
42.125
40.6875
39.25
37.9375
36.6875
35.5625
34.8125
34.625
34.875
35.4375
35.75
35.3125
34.6875
34.3125
34.125
33.9375
33.4375
32.75
32.375
32.1875
31.875
31.5
31.125
30.75
30.625
30.75
30.8125
30.4375
29.8125
31.0
41.5
70.0625
107.0
129.5
134.1875
131.75
125.3125
114.3125
100.75
87.6875
76.875
68.1875
60.6875
54.25
49.8125
48.5
49.3125
49.9375
49.8125
49.375
49.0
48.625
47.8125
46.6875
45.625
44.8125
44.25
43.8125
43.25
42.5625
41.75
40.875
39.875
38.625
37.25
36.0
35.625
35.6875
35.375
35.3125
35.5625
35.3125
34.8125
34.4375
33.75
32.875
32.0
31.4375
31.4375
31.6875
31.3125
31.125
31.5
31.125
30.25
29.8125
29.8125
29.5625
29.0625
29.75
36.25
57.75
94.5
127.125
141.125
142.6875
138.875
130.25
116.8125
101.5625
88.3125
78.125
69.875
62.75
56.8125
52.8125
51.1875
50.8125
50.6875
50.625
50.5
50.1875
49.5625
48.75
48.0
47.125
46.125
45.0
43.875
42.8125
41.8125
41.0
40.25
39.5
38.8125
38.25
37.625
37.125
36.625
36.1875
35.75
35.3125
34.9375
34.5625
34.125
33.6875
33.25
32.8125
32.5
32.3125
32.0625
31.75
31.4375
31.125
30.875
30.5625
30.25
30.0
29.75
29.5
29.375
30.6875
39.4375
65.875
104.4375
132.4375
141.5
141.1875
136.6875
127.3125
113.1875
97.75
83.625
70.5625
58.6875
49.8125
45.8125
46.25
48.6875
51.3125
53.3125
54.0
53.1875
51.375
49.25
47.5
46.8125
46.75
46.5
45.75
44.5
42.5
40.25
38.5625
37.5
36.6875
36.125
36.0
36.1875
36.5625
36.5625
36.1875
35.5625
34.625
33.4375
32.6875
32.5625
32.5625
32.5625
32.6875
32.6875
32.5
32.0625
31.375
30.75
30.25
30.0625
30.4375
30.9375
31.4375
31.5625
31.125
31.375
37.3125
59.3125
95.375
124.0625
134.1875
133.8125
128.3125
117.9375
104.25
90.0625
78.1875
68.875
61.5625
55.625
51.25
49.125
49.0
49.4375
49.5
49.3125
49.125
48.8125
48.0
46.9375
45.9375
45.25
44.5625
43.6875
42.75
41.875
41.125
40.3125
39.4375
38.5
37.8125
37.25
36.5625
35.8125
35.25
34.8125
34.5
34.125
33.8125
33.625
33.5625
33.5625
33.3125
32.875
32.25
31.6875
31.3125
31.0
30.625
30.3125
30.25
30.1875
29.75
29.25
28.9375
29.0
30.625
40.3125
67.6875
106.75
134.3125
141.75
139.625
133.625
123.75
109.9375
94.875
82.1875
72.75
64.9375
58.0625
52.875
50.375
50.0
50.1875
50.25
50.375
50.1875
49.4375
48.625
48.0625
47.25
46.125
45.0625
44.0625
43.4375
42.375
40.8125
40.0625
40.0625
39.875
39.0
37.8125
37.1875
36.875
36.1875
35.1875
34.5
34.4375
34.5
34.125
33.5
33.125
32.9375
32.6875
32.375
32.0
31.6875
31.4375
31.125
30.8125
30.5
30.125
29.625
29.25
29.125
29.1875
29.5625
33.0625
49.125
83.9375
121.375
138.875
139.25
135.6875
129.125
116.6875
100.6875
86.1875
75.4375
67.1875
60.0
54.3125
50.8125
49.6875
49.6875
49.8125
49.6875
49.625
49.1875
48.5625
47.8125
47.125
46.25
45.25
44.125
43.0625
42.0625
41.125
40.1875
39.375
38.625
38.0
37.375
36.8125
36.3125
35.8125
35.3125
34.875
34.5625
34.1875
33.75
33.375
33.0
32.625
32.3125
31.9375
31.625
31.375
31.125
30.875
30.625
30.4375
30.125
29.8125
29.5625
29.3125
29.125
29.125
31.0625
42.25
71.875
109.4375
132.125
136.375
133.0
126.5
115.6875
101.4375
87.3125
76.0
67.4375
60.5
54.8125
50.8125
49.125
49.0625
49.375
49.375
49.3125
49.1875
48.75
48.0625
47.1875
46.3125
45.375
44.375
43.4375
42.5
41.6875
40.875
40.125
39.25
38.4375
37.5625
36.8125
36.1875
35.6875
35.3125
34.9375
34.5
34.125
33.6875
33.25
32.9375
32.6875
32.5
32.3125
31.9375
31.4375
31.125
30.875
30.5625
30.25
29.875
29.625
29.4375
29.3125
29.3125
31.25
42.6875
72.5
111.375
136.625
141.9375
138.4375
132.5
123.4375
110.4375
96.0
83.375
73.625
65.75
59.0
53.75
50.75
50.0
50.125
50.25
50.3125
50.1875
49.6875
48.9375
48.0625
47.0625
46.0
45.0
44.0625
43.0625
42.0625
41.1875
40.375
39.5625
38.8125
38.1875
37.5
37.0
36.5
36.0
35.5
35.125
34.6875
34.375
34.0
33.6875
33.375
33.0
32.625
32.1875
31.75
31.4375
31.125
30.9375
30.75
30.4375
30.125
29.8125
29.75
32.1875
45.625
77.75
115.6875
136.6875
139.875
136.75
130.0625
118.3125
103.1875
88.75
77.25
68.25
60.9375
55.0625
51.1875
49.75
49.6875
49.8125
49.875
49.75
49.5
49.0
48.25
47.3125
46.25
45.1875
44.1875
43.1875
42.25
41.3125
40.375
39.5
38.75
38.0
37.4375
36.875
36.375
36.0
35.5625
35.125
34.6875
34.3125
34.0
33.625
33.25
32.9375
32.625
32.3125
32.0
31.6875
31.375
31.0
30.75
30.5
30.25
30.0
29.875
30.8125
37.4375
60.1875
97.4375
127.125
137.0
135.6875
129.9375
119.625
105.4375
90.9375
78.9375
69.6875
62.375
56.25
51.5625
49.0625
48.6875
48.9375
49.0625
49.0
48.9375
48.75
48.1875
47.375
46.625
45.8125
44.875
43.8125
42.8125
41.8125
41.0
40.0625
39.1875
38.4375
37.6875
37.0625
36.5625
36.0
35.5
35.0625
34.625
34.3125
34.0
33.625
33.25
32.9375
32.75
32.375
31.8125
31.4375
31.1875
30.9375
30.6875
30.4375
30.1875
30.0
30.25
33.125
47.5
80.375
117.9375
138.8125
143.0625
140.5625
134.0
122.8125
108.1875
93.625
81.75
72.5
64.75
58.375
53.6875
51.375
50.8125
50.75
50.6875
50.5625
50.3125
49.8125
49.0
48.125
47.25
46.25
45.125
44.0625
43.125
42.25
41.375
40.5625
39.8125
39.0625
38.3125
37.5625
36.9375
36.5
36.0625
35.625
35.25
34.8125
34.4375
34.0625
33.625
33.25
32.875
32.5625
32.25
31.9375
31.625
31.3125
31.0625
30.9375
30.6875
30.4375
30.4375
33.125
47.3125
80.0
117.0625
137.5
141.3125
138.4375
130.9375
119.0625
104.9375
91.625
80.625
71.3125
63.1875
56.625
52.25
50.25
49.9375
50.0625
50.125
50.0
49.6875
49.125
48.3125
47.4375
46.5
45.5625
44.5
43.4375
42.4375
41.5625
40.8125
40.0625
39.375
38.625
37.9375
37.25
36.6875
36.1875
35.75
35.3125
34.875
34.5
34.125
33.6875
33.3125
32.875
32.5
32.25
32.0625
31.8125
31.5
31.125
30.875
30.625
30.375
30.1875
30.1875
31.625
41.1875
69.4375
108.1875
133.5625
139.625
136.875
129.9375
118.75
104.375
89.875
78.0
69.0625
61.625
55.4375
51.0
49.25
49.375
49.6875
49.75
49.75
49.75
49.4375
48.9375
48.3125
47.6875
46.875
45.75
44.6875
43.6875
42.6875
41.6875
40.75
39.9375
39.25
38.5625
37.9375
37.375
36.875
36.375
35.9375
35.5625
35.1875
34.75
34.375
34.0
33.5625
33.125
32.625
32.375
32.125
31.875
31.5
31.1875
30.9375
30.6875
30.5625
30.875
34.375
50.3125
84.375
120.1875
137.9375
140.875
138.75
131.625
118.75
103.375
89.4375
78.1875
69.1875
61.75
55.8125
52.125
50.875
50.9375
51.0
50.8125
50.625
50.3125
49.75
49.0
48.0625
47.1875
46.25
45.1875
44.0625
42.9375
41.875
41.0625
40.3125
39.6875
38.9375
38.1875
37.625
37.125
36.6875
36.25
35.75
35.375
35.0
34.625
34.1875
33.8125
33.375
33.0
32.625
32.375
32.125
31.875
31.5
31.0625
30.75
30.5
30.1875
30.1875
32.6875
46.375
79.375
117.625
137.6875
140.5
138.25
132.5
120.875
105.1875
90.25
78.875
70.125
62.4375
56.125
52.0
50.5625
50.4375
50.5625
50.5625
50.375
50.0
49.375
48.625
47.75
46.8125
45.875
44.9375
43.9375
42.875
41.875
41.0
40.125
39.3125
38.625
37.9375
37.3125
36.75
36.3125
35.9375
35.5
35.0
34.5625
34.1875
33.9375
33.5625
33.1875
32.875
32.5
32.1875
31.875
31.625
31.4375
31.125
30.875
30.625
30.375
30.125
30.5625
35.5
55.125
92.25
126.5625
140.375
139.25
132.875
123.0625
109.4375
94.5625
81.9375
72.25
64.375
57.6875
52.5625
49.875
49.4375
49.75
49.875
49.8125
49.6875
49.5
49.0
48.1875
47.3125
46.4375
45.5
44.5625
43.5625
42.5625
41.5625
40.5
39.5
38.625
37.9375
37.375
36.875
36.375
35.9375
35.5625
34.9375
34.3125
33.875
33.6875
33.5625
33.375
33.0625
33.0
32.9375
32.8125
32.5625
31.875
31.125
30.8125
30.6875
30.5
30.125
30.75
39.125
65.5625
104.875
133.625
142.375
141.0625
135.8125
126.625
113.625
98.9375
85.625
75.3125
67.375
60.625
55.0625
51.8125
50.875
51.0
51.0625
50.875
50.5625
50.125
49.5
48.625
47.5625
46.5
45.375
44.3125
43.25
42.3125
41.5
40.6875
39.75
38.9375
38.375
37.9375
37.5625
37.0625
36.5625
36.0625
35.6875
35.3125
34.875
34.375
33.9375
33.625
33.3125
32.8125
32.3125
31.875
31.5
31.25
31.0
30.75
30.5625
30.375
30.25
31.0
38.3125
62.625
101.25
131.0625
140.8125
140.125
134.75
124.5
109.8125
94.5625
82.1875
72.75
64.9375
58.25
53.375
50.875
50.3125
50.3125
50.25
50.1875
50.125
49.6875
48.875
47.9375
46.9375
45.875
44.875
43.9375
43.125
42.3125
41.4375
40.375
39.5
38.6875
37.9375
37.375
36.9375
36.5
36.0
35.4375
34.9375
34.5
34.125
33.875
33.5625
33.25
32.9375
32.5
32.0
31.625
31.25
31.1875
31.375
31.3125
30.9375
30.5625
30.375
30.375
31.125
38.6875
64.3125
103.3125
131.5625
139.375
136.6875
130.0625
119.3125
104.8125
90.0625
78.0
69.0
61.8125
55.75
51.3125
49.0625
49.125
49.9375
50.25
49.9375
49.625
49.5625
49.125
48.0625
46.875
46.0625
45.4375
44.4375
43.125
42.0
41.4375
41.125
40.125
38.625
37.25
36.125
35.625
36.125
36.625
36.375
35.5625
35.25
35.125
34.4375
33.3125
32.3125
32.0625
32.25
32.625
32.5625
32.125
31.5625
31.125
30.75
30.3125
29.875
29.6875
29.9375
32.375
44.9375
76.5
115.375
137.9375
142.6875
141.0625
135.125
123.25
108.0
93.9375
82.4375
72.9375
64.8125
58.1875
53.5625
51.375
50.8125
50.8125
50.75
50.625
50.25
49.75
49.0
48.125
47.25
46.25
45.375
44.625
43.75
42.6875
41.625
40.6875
39.8125
39.0
38.3125
37.75
37.25
36.875
36.4375
35.9375
35.5
35.0625
34.5625
34.0625
33.625
33.3125
32.9375
32.625
32.4375
32.1875
31.8125
31.5
31.3125
31.125
30.8125
30.5625
30.3125
30.0
30.1875
33.5
49.3125
83.8125
121.0
139.75
142.25
138.1875
130.0625
118.625
103.8125
88.5625
76.0625
67.0625
60.375
54.375
50.25
49.1875
50.0
50.75
50.625
50.0625
49.5625
49.3125
48.8125
47.8125
46.5625
45.3125
44.375
43.625
42.8125
41.875
40.9375
39.9375
39.0625
38.375
37.8125
37.25
36.75
36.3125
35.9375
35.5625
35.125
34.6875
34.25
33.875
33.5625
33.1875
32.8125
32.4375
32.0625
31.75
31.4375
31.1875
30.9375
30.75
30.5625
30.3125
30.0
29.625
29.375
29.4375
30.3125
36.9375
60.3125
99.0
129.5625
138.9375
137.3125
131.75
121.4375
107.4375
92.8125
80.1875
70.5
62.6875
56.0625
51.1875
48.9375
48.9375
49.5625
49.8125
49.9375
50.0625
49.875
49.3125
48.5625
47.6875
46.9375
46.0625
45.125
44.0
42.9375
41.9375
41.0625
40.125
39.1875
38.25
37.625
37.3125
37.1875
36.8125
36.125
35.5625
35.375
35.0625
34.5
33.75
33.25
33.0
32.8125
32.5
32.3125
32.0
31.5625
31.1875
30.9375
30.5625
30.375
31.4375
39.4375
64.0
101.25
130.3125
140.4375
139.1875
133.25
123.875
111.3125
97.4375
84.875
74.5625
66.1875
59.3125
53.875
50.75
49.8125
49.9375
50.3125
50.4375
50.4375
50.0625
49.1875
48.0
46.8125
45.9375
45.3125
44.625
43.875
43.125
42.3125
41.3125
40.1875
39.125
38.375
37.6875
37.0625
36.6875
36.5625
36.1875
35.5625
34.8125
34.25
34.0625
34.0
33.75
33.3125
32.875
32.5
32.0625
31.6875
31.5
31.5
31.25
30.8125
30.375
30.625
34.6875
52.25
88.375
124.625
141.5
143.125
138.75
130.0625
116.75
101.4375
87.6875
76.8125
68.0625
60.8125
55.3125
52.0
50.8125
50.75
50.8125
50.75
50.5625
50.25
49.75
49.0
48.0
46.875
45.8125
44.6875
43.6875
42.6875
41.8125
40.875
39.9375
39.25
38.6875
37.5
36.375
36.1875
36.5625
36.6875
36.1875
35.5
34.875
34.125
33.375
32.9375
32.75
32.6875
32.625
32.5625
32.3125
31.75
31.1875
30.8125
31.625
37.875
59.875
96.5
126.125
136.5625
136.125
131.5
122.0
108.25
93.6875
81.4375
71.75
63.6875
57.0625
52.1875
50.0
50.0
50.5
50.625
50.4375
50.125
49.75
49.0625
48.125
47.125
46.125
45.125
44.0625
43.0625
42.0625
41.3125
40.625
40.0625
39.5625
39.0625
38.625
38.1875
37.75
37.375
37.0
36.625
36.125
35.75
35.375
34.9375
34.4375
34.0
33.8125
33.4375
33.125
32.875
32.625
32.25
31.75
31.4375
31.25
30.875
30.625
31.5625
39.3125
64.75
104.5625
134.5625
144.0
142.3125
136.4375
126.9375
113.6875
98.625
84.8125
73.75
65.375
58.75
53.8125
51.125
50.6875
50.9375
51.0625
51.0
50.9375
50.6875
50.0625
49.125
48.25
47.125
46.0
44.875
43.75
42.75
41.875
41.0
40.1875
39.5
38.8125
38.1875
37.5
37.0
36.5625
36.25
35.9375
35.625
35.3125
34.9375
34.5625
34.1875
33.8125
33.4375
33.125
32.8125
32.3125
32.0625
31.75
31.375
31.0625
30.6875
30.5
30.375
30.25
30.375
33.0
47.5625
81.9375
121.5
142.5625
145.6875
142.0
134.1875
122.4375
108.3125
94.4375
82.625
72.875
64.5
57.8125
53.1875
51.1875
50.9375
51.125
51.25
51.1875
51.0625
50.625
50.0
49.125
48.25
47.25
46.25
45.0625
43.9375
42.875
41.9375
41.125
40.3125
39.5625
38.8125
38.125
37.5
36.875
36.375
35.9375
35.5625
35.125
34.625
34.25
34.0
33.6875
33.3125
33.0
32.625
32.375
32.0625
31.8125
31.5625
31.3125
31.0
30.75
30.5
30.3125
30.125
30.625
36.375
58.3125
96.5
128.4375
140.3125
139.5625
134.125
124.5
110.5
94.8125
81.125
70.9375
63.25
57.0
52.1875
49.8125
49.875
50.5625
51.0625
51.3125
51.4375
51.25
50.6875
49.6875
48.625
47.5
46.375
45.375
44.4375
43.5
42.5625
41.625
40.8125
40.0625
39.4375
38.875
38.4375
38.0
37.5
37.0
36.5
36.0
35.5
35.0625
34.6875
34.3125
34.0
33.6875
33.375
32.9375
32.5
32.0625
31.6875
31.4375
31.1875
31.0625
30.8125
30.5625
30.25
30.1875
32.3125
44.3125
74.875
113.25
137.0
142.4375
140.25
134.3125
123.5625
108.625
93.5
81.3125
71.875
63.875
57.125
52.5
50.5625
50.4375
50.9375
51.375
51.75
51.75
51.25
50.25
48.9375
47.6875
46.5
45.4375
44.375
43.375
42.4375
41.5625
40.75
40.0
39.25
38.625
38.125
37.5625
37.0
36.4375
36.0
35.5625
35.125
34.75
34.5
34.0625
33.5
33.25
33.3125
33.0
32.25
31.75
31.5625
31.375
31.0
30.75
31.0
31.0
30.5
29.9375
30.5625
36.6875
58.875
97.1875
129.5625
141.125
140.9375
137.8125
129.875
116.0
100.125
86.6875
76.5625
68.125
60.6875
54.875
51.625
50.8125
51.125
51.375
51.3125
50.875
50.125
49.1875
48.1875
47.1875
46.3125
45.3125
44.375
43.5
42.5625
41.6875
40.8125
40.0
39.1875
38.4375
37.8125
37.125
36.5
35.9375
35.5
35.0625
34.6875
34.3125
34.0
33.6875
33.375
33.0625
32.75
32.4375
32.125
31.875
31.625
31.375
31.0625
30.75
30.5
30.25
30.0
29.8125
29.6875
29.6875
30.875
39.4375
65.875
104.0625
130.6875
139.0
139.0625
134.1875
124.125
110.4375
95.9375
83.125
73.0625
65.25
59.0
54.4375
52.125
51.75
51.6875
51.1875
50.625
50.125
49.75
49.0
48.0
47.125
46.5
45.9375
45.0
43.9375
42.9375
42.125
41.4375
40.5625
39.6875
38.8125
38.0625
37.4375
36.875
36.375
35.9375
35.5
35.125
34.6875
34.125
33.625
33.25
33.0
32.8125
32.5
32.25
32.0625
31.6875
31.3125
30.875
30.5625
30.3125
30.0625
29.875
29.625
29.4375
29.25
29.125
30.6875
41.0625
70.0625
110.0625
137.125
143.875
142.6875
138.9375
129.9375
115.8125
100.8125
88.3125
78.375
70.0
62.5
56.3125
52.5625
51.0625
50.625
50.375
50.125
49.8125
49.25
48.5625
47.8125
47.0
46.3125
45.5625
44.6875
43.75
42.8125
41.875
41.0
40.0625
39.25
38.5
37.9375
37.375
36.8125
36.25
35.8125
35.3125
34.875
34.5
34.1875
33.9375
33.5625
33.125
32.75
32.375
31.9375
31.625
31.3125
31.0625
30.875
30.5625
30.25
29.8125
29.5
29.25
29.0
28.75
28.625
29.625
37.5
62.6875
101.4375
130.625
140.1875
141.0
137.9375
129.1875
115.8125
101.5
88.8125
78.0
68.625
60.8125
54.9375
51.5
50.1875
49.8125
49.5625
49.375
49.125
48.75
48.125
47.5
46.8125
46.125
45.3125
44.375
43.3125
42.375
41.5
40.625
39.75
39.0
38.1875
37.5
36.8125
36.1875
35.6875
35.375
35.0625
34.625
34.1875
33.75
33.375
33.0625
32.6875
32.375
32.0625
31.6875
31.5
31.3125
30.6875
29.875
30.0625
30.4375
30.3125
30.0625
30.0625
29.9375
29.6875
30.0625
34.0
50.6875
84.6875
119.5
135.75
136.625
132.4375
124.75
112.375
98.0
85.5625
75.5625
67.125
59.8125
54.1875
50.5625
49.3125
49.25
48.8125
48.3125
48.125
47.875
47.3125
46.625
45.9375
45.1875
44.4375
43.6875
42.875
42.0
41.1875
40.375
39.5
38.625
37.875
37.1875
36.75
36.25
35.6875
35.125
34.625
34.125
33.625
33.25
32.9375
32.6875
32.4375
32.125
31.8125
31.5
31.25
31.0
30.8125
30.5625
30.375
30.0625
29.8125
29.5
29.125
28.8125
28.5
28.25
28.1875
29.4375
37.875
63.5625
102.125
130.6875
140.3125
141.4375
139.0625
131.75
119.4375
105.25
91.8125
80.5
71.25
63.625
57.3125
52.9375
50.8125
50.0625
49.6875
49.5625
49.5
49.25
48.6875
48.0625
47.375
46.5
45.625
44.5625
43.5625
42.625
41.8125
40.9375
40.125
39.25
38.3125
37.5
36.75
36.1875
35.6875
35.1875
34.8125
34.5
34.125
33.625
33.1875
32.6875
32.1875
31.875
31.625
31.375
31.0625
30.75
30.4375
30.1875
29.9375
29.75
29.5
29.3125
29.125
28.875
28.6875
28.4375
28.25
28.0
28.25
32.0
48.8125
83.875
119.3125
135.5
137.125
135.0625
129.375
117.625
102.5
88.4375
77.3125
68.5625
61.0625
54.9375
51.0
49.4375
49.0625
48.8125
48.5
48.25
47.9375
47.375
46.6875
46.125
45.5
44.75
43.875
42.9375
42.0625
41.125
40.3125
39.5625
38.875
38.125
37.5625
37.125
36.6875
36.25
35.875
35.6875
35.4375
35.0625
34.8125
34.625
34.25
33.8125
33.375
33.125
32.75
32.4375
32.0625
31.8125
31.6875
31.3125
30.875
30.5
30.125
29.875
29.625
29.4375
29.25
29.0
28.75
28.4375
28.1875
28.6875
33.8125
53.25
89.3125
123.625
139.0625
141.0
137.3125
128.8125
115.9375
100.9375
87.3125
76.5
67.9375
60.75
55.0625
51.3125
49.625
49.125
48.8125
48.5625
48.5
48.3125
47.8125
47.0625
46.3125
45.625
44.9375
44.125
43.25
42.3125
41.375
40.375
39.4375
38.6875
37.9375
37.375
36.8125
36.3125
35.75
35.3125
34.9375
34.5625
34.1875
33.75
33.4375
33.0625
32.625
32.25
31.875
31.625
31.3125
31.0625
30.8125
30.5
30.1875
29.875
29.625
29.4375
29.25
29.0
28.8125
28.625
28.375
28.125
27.875
28.0
30.625
43.9375
75.5625
114.0
136.625
140.375
137.5625
132.5
122.875
109.0625
94.6875
82.75
73.3125
65.375
58.5
53.125
50.0625
49.0625
48.75
48.625
48.5
48.3125
47.9375
47.3125
46.625
45.875
45.375
44.75
43.5625
42.5
41.5625
40.6875
39.75
38.875
38.125
37.4375
36.8125
36.1875
35.5625
35.0625
34.625
34.25
33.875
33.5625
33.3125
33.0625
32.75
32.375
32.0
31.6875
31.375
31.0
30.75
30.5
30.1875
29.875
29.5625
29.1875
28.9375
28.6875
28.625
28.5
28.375
28.125
27.9375
27.75
27.5
27.25
27.0
27.0625
28.375
36.8125
62.5
100.4375
127.875
136.4375
135.875
130.6875
120.625
106.75
92.125
80.0
70.9375
63.5625
57.25
52.25
49.3125
48.375
48.3125
48.1875
47.875
47.6875
47.4375
46.9375
46.4375
46.0
45.5
44.875
44.1875
43.375
42.5625
41.6875
40.8125
40.0
39.1875
38.3125
37.5625
37.0
36.5
36.0
35.5625
35.0625
34.6875
34.25
33.9375
33.5625
33.1875
32.6875
32.3125
32.0
31.625
31.25
31.0625
30.8125
30.375
29.9375
29.8125
29.875
29.625
29.1875
28.75
28.5625
28.5
28.4375
28.375
28.1875
27.875
27.5625
27.3125
27.0625
26.9375
26.9375
27.0
28.875
40.4375
70.0625
108.375
132.625
137.875
136.5
132.5625
122.6875
108.375
94.125
82.125
72.6875
65.125
58.875
54.0625
50.9375
49.6875
49.375
49.0
48.625
48.125
47.5
46.875
46.3125
45.8125
45.25
44.625
43.9375
43.1875
42.3125
41.25
40.0
38.8125
37.8125
37.25
37.125
37.1875
36.9375
36.1875
35.125
34.1875
33.6875
33.625
33.6875
33.5625
33.25
32.625
32.0625
31.5
31.0
30.8125
30.75
30.625
30.4375
30.25
29.9375
29.625
29.25
28.9375
28.6875
28.6875
28.75
29.0
31.6875
44.6875
73.9375
108.75
130.4375
136.5625
136.0
130.9375
121.375
108.9375
95.6875
83.75
73.9375
65.875
58.9375
53.625
50.5
49.375
48.9375
48.6875
48.5625
48.375
47.8125
46.9375
46.1875
45.5
44.875
44.3125
43.5
42.625
41.75
40.9375
40.0625
39.25
38.375
37.5625
36.8125
36.25
35.6875
35.1875
34.6875
34.3125
33.9375
33.5625
33.1875
32.75
32.25
31.8125
31.625
31.4375
31.3125
31.125
30.75
30.3125
29.875
29.6875
29.75
29.875
29.6875
29.375
29.0
28.6875
28.375
28.0625
27.8125
27.625
27.75
29.4375
39.125
66.1875
103.3125
127.75
134.4375
134.25
129.5625
119.0
104.75
91.1875
79.875
70.375
62.625
56.5
52.4375
50.5625
50.125
50.0
49.5625
49.0625
48.5625
48.0
47.1875
46.375
45.625
44.9375
44.3125
43.6875
42.875
42.0
41.25
40.625
40.0
39.1875
38.4375
37.6875
37.0625
36.5625
36.125
35.8125
35.5
35.125
34.75
34.1875
33.6875
33.1875
32.8125
32.5625
32.25
32.0625
31.75
31.4375
31.0
30.625
30.25
30.0
29.75
29.5625
29.4375
29.3125
29.0
28.625
28.375
28.25
28.125
28.0
28.1875
31.3125
46.0625
78.1875
114.875
135.5
139.6875
137.8125
131.4375
119.625
104.9375
91.375
80.1875
71.0625
63.8125
57.875
53.375
51.0
50.375
50.1875
50.0
49.5
48.8125
48.25
47.75
47.1875
46.25
45.1875
44.3125
43.625
43.0
42.125
41.125
40.5625
40.125
39.5
38.5
37.375
36.25
35.625
35.5
35.4375
35.125
34.6875
34.375
34.0
33.5
32.875
32.375
32.0625
32.0
32.0
31.8125
31.375
30.9375
30.625
30.375
30.0625
29.625
29.25
28.9375
28.75
28.75
28.75
28.625
28.5625
28.625
30.125
39.375
65.5625
102.875
130.6875
139.9375
139.0
133.625
124.125
111.0
96.8125
84.375
74.25
65.8125
58.9375
53.6875
50.5
49.625
49.875
49.9375
49.75
49.4375
48.875
48.0625
47.25
46.5
45.8125
45.0625
44.25
43.3125
42.4375
41.625
40.8125
40.0625
39.25
38.5
37.75
37.0625
36.4375
35.9375
35.4375
35.0625
34.6875
34.3125
33.9375
33.4375
33.0
32.6875
32.5625
32.3125
31.9375
31.625
31.375
31.125
31.0
31.75
38.25
59.5625
93.0
119.75
129.9375
130.5
127.4375
120.3125
108.9375
95.5625
82.9375
72.1875
63.4375
56.5625
51.75
49.5625
49.375
49.625
49.75
49.4375
48.6875
47.875
47.375
46.8125
45.9375
45.25
44.9375
44.4375
43.6875
43.1875
42.5625
41.625
40.3125
39.0
38.125
37.9375
37.625
37.1875
36.875
36.5
36.0
35.4375
35.0
34.5625
34.0
33.5625
33.25
33.0
32.875
32.5
31.9375
31.5
31.375
31.25
30.875
30.4375
30.1875
29.9375
29.8125
29.6875
29.8125
32.875
48.1875
82.75
121.25
141.625
144.875
141.875
134.5625
121.4375
105.3125
90.8125
79.625
70.6875
63.3125
57.4375
53.4375
51.625
51.5625
51.875
51.6875
51.25
50.6875
50.0
49.0625
48.0
47.0
46.0625
45.1875
44.25
43.375
42.5
41.75
41.0
40.125
39.375
38.625
37.875
37.25
36.6875
36.1875
35.9375
35.5625
35.1875
34.75
34.4375
34.0625
33.625
33.25
32.9375
32.75
32.5
32.125
31.75
31.4375
31.125
30.8125
30.5625
30.375
30.1875
30.0
29.6875
29.375
29.1875
28.9375
28.6875
28.5625
29.0
33.25
51.3125
88.0625
124.8125
141.75
143.875
140.5
132.125
119.4375
105.0
91.3125
79.6875
70.125
62.5625
56.8125
52.8125
51.125
51.0625
51.25
51.125
50.75
50.25
49.5
48.625
47.75
46.875
46.0
45.0625
44.1875
43.3125
42.4375
41.5625
40.75
39.9375
39.125
38.3125
37.5625
37.0
36.4375
35.9375
35.5
35.1875
34.8125
34.375
33.9375
33.5625
33.1875
32.875
32.625
32.3125
32.0625
31.8125
31.5
31.1875
30.875
30.5625
30.3125
30.0625
29.875
29.6875
29.375
29.125
28.875
28.6875
28.5
28.3125
28.125
27.9375
27.75
27.5
27.3125
27.1875
27.0625
27.1875
29.1875
40.9375
72.1875
112.3125
136.875
142.1875
138.9375
130.75
117.4375
102.1875
88.6875
77.8125
68.9375
61.5
55.75
51.75
49.75
49.6875
50.375
50.75
50.625
50.1875
49.5625
48.6875
47.6875
46.75
45.875
45.0625
44.1875
43.25
42.3125
41.375
40.5
39.6875
39.0
38.3125
37.75
37.125
36.5625
36.0
35.5
35.0
34.625
34.25
33.9375
33.625
33.25
32.875
32.5
32.1875
31.875
31.625
31.4375
31.125
30.8125
30.5
30.125
29.875
29.625
29.375
29.1875
29.0
28.75
28.4375
28.1875
28.0
27.8125
27.625
27.5625
27.4375
27.1875
26.9375
26.8125
26.6875
27.4375
33.875
55.5625
92.75
125.5
138.75
139.5
135.625
126.875
113.875
99.625
86.5625
75.75
67.0
60.0
54.6875
51.3125
50.0625
50.1875
50.375
50.1875
49.875
49.375
48.5
47.4375
46.5
45.625
44.875
44.0625
43.1875
42.3125
41.4375
40.5625
39.6875
38.875
38.125
37.5625
37.0
36.5
36.0
35.5
34.9375
34.375
33.9375
33.6875
33.375
33.0625
32.8125
32.4375
32.0625
31.75
31.4375
31.125
30.875
30.625
30.375
30.0625
29.75
29.5
29.25
28.9375
28.6875
28.5625
28.375
28.0625
27.8125
27.625
27.4375
27.25
27.125
27.0
26.875
26.6875
26.4375
26.1875
25.9375
25.8125
25.6875
25.625
25.5
25.3125
25.125
25.0
24.9375
24.8125
24.625
24.5
24.375
24.25
24.25
25.125
31.4375
52.875
89.9375
122.625
135.0
135.6875
132.125
122.9375
108.875
94.1875
81.875
72.0
63.875
57.3125
52.25
48.8125
47.1875
47.0625
47.4375
47.6875
47.625
47.375
46.625
45.625
44.625
43.75
42.875
42.125
41.375
40.625
39.9375
39.1875
38.4375
37.6875
36.875
36.1875
35.5625
35.125
34.625
34.1875
33.75
33.3125
32.875
32.375
31.9375
31.6875
31.375
31.125
30.875
30.625
30.3125
29.9375
29.5625
29.3125
29.0625
28.8125
28.625
28.4375
28.125
27.875
27.625
27.4375
27.1875
27.0
26.8125
26.625
26.4375
26.25
26.0625
25.8125
25.625
25.4375
25.3125
25.1875
25.0625
24.875
24.6875
24.5625
24.4375
24.3125
24.1875
24.0625
23.875
23.75
23.6875
23.5625
23.4375
23.25
23.1875
23.125
23.0
22.8125
22.6875
22.625
22.5
22.4375
22.375
22.375
22.375
22.4375
22.4375
22.4375
22.5
22.5625
22.625
22.625
22.5625
22.5625
22.5
22.375
22.25
22.1875
22.0625
22.0
21.9375
22.5625
27.0625
43.375
74.6875
108.1875
125.0
126.5
122.625
114.6875
102.3125
88.625
76.8125
67.5
59.875
53.8125
49.375
46.1875
44.125
43.375
43.5
43.875
44.0
43.875
43.5625
43.0625
42.3125
41.5
40.6875
39.9375
39.1875
38.5625
37.9375
37.25
36.625
35.9375
35.25
34.5
34.0
33.5
33.0
32.625
32.3125
31.9375
31.4375
30.9375
30.5625
30.1875
29.9375
29.6875
29.5625
29.3125
29.0
28.6875
28.375
28.0625
27.8125
27.625
27.375
27.1875
26.9375
26.625
26.375
26.1875
25.9375
25.75
25.625
25.5
25.3125
25.125
24.875
24.75
24.5625
24.375
24.25
24.125
24.0
23.75
23.5625
23.5
23.375
23.1875
23.0
22.9375
22.8125
22.6875
22.5625
22.375
22.3125
22.25
22.1875
22.0625
21.9375
21.75
21.625
21.5
21.4375
21.375
21.3125
21.25
21.1875
21.0
20.8125
20.6875
20.625
20.5625
20.5625
20.5625
20.75
23.25
33.9375
58.5
91.4375
114.9375
121.25
120.125
116.0
107.3125
95.5
84.125
74.3125
65.8125
58.625
52.875
48.375
45.0625
43.0
42.4375
42.625
42.75
42.8125
42.8125
42.5
41.875
41.1875
40.5
39.75
39.0
38.25
37.5625
36.9375
36.25
35.5625
34.9375
34.3125
33.75
33.1875
32.6875
32.25
31.8125
31.375
31.0
30.5625
30.125
29.8125
29.4375
29.125
28.8125
28.625
28.375
28.125
27.875
27.625
27.3125
27.0625
26.8125
26.5625
26.4375
26.25
26.0
25.75
25.5625
25.375
25.125
24.9375
24.75
24.5625
24.375
24.25
24.0
23.8125
23.6875
23.5
23.375
23.25
23.0625
22.9375
22.75
22.625
22.4375
22.3125
22.1875
22.1875
22.0625
22.0
21.8125
21.625
21.5625
21.4375
21.375
21.25
21.1875
21.125
21.0625
21.0
21.0625
21.0
21.0
21.0625
21.1875
21.1875
21.1875
21.25
21.3125
21.3125
21.5
23.75
33.5625
55.8125
86.0625
109.4375
116.625
115.0
109.5
100.1875
88.5
77.1875
68.0625
60.9375
55.0625
50.0625
46.125
43.25
41.5
41.0625
41.4375
41.6875
41.4375
41.0
40.5625
40.0
39.375
38.8125
38.3125
37.75
37.0625
36.375
35.75
35.1875
34.625
34.0625
33.4375
32.875
32.25
31.6875
31.1875
30.9375
30.5625
30.1875
29.8125
29.375
29.0
28.75
28.5625
28.375
28.1875
27.9375
27.6875
27.4375
27.25
27.0
26.625
26.1875
25.9375
25.75
25.5
25.3125
25.25
25.0625
24.875
24.75
24.625
24.4375
24.25
24.0625
23.875
23.6875
23.5625
23.3125
23.125
23.375
25.9375
36.625
59.5625
89.25
111.0
117.8125
117.6875
115.0625
109.375
100.5625
89.9375
79.25
69.8125
62.1875
55.9375
50.6875
46.5
44.0
43.1875
43.25
43.4375
43.5625
43.4375
42.9375
42.1875
41.375
40.625
39.875
39.0625
38.3125
37.5625
36.875
36.1875
35.5625
34.8125
34.1875
33.6875
33.1875
32.75
32.25
31.8125
31.375
30.875
30.375
30.0625
29.8125
29.5
29.1875
28.875
28.5
28.1875
28.0
27.9375
27.8125
27.625
27.25
26.8125
26.4375
26.1875
26.0625
25.9375
25.875
25.75
25.5
25.1875
25.0
24.8125
24.625
24.5
24.4375
24.1875
23.9375
23.875
23.75
23.625
23.5
23.5
23.4375
23.3125
23.0625
22.75
22.5
22.3125
22.3125
22.25
22.1875
22.0625
21.75
21.5
21.3125
21.375
21.5
21.25
20.8125
20.4375
20.5625
21.1875
21.6875
21.8125
21.3125
20.75
22.1875
31.6875
56.75
91.25
115.0625
121.75
121.1875
116.1875
105.3125
91.5
79.0625
69.5625
62.125
56.3125
51.875
48.3125
45.1875
43.0625
42.125
42.5
43.4375
43.875
43.8125
43.4375
42.375
41.0625
40.125
39.625
39.3125
38.875
38.0625
37.125
36.1875
35.4375
34.875
34.5625
34.25
33.8125
33.1875
32.5625
31.9375
31.5
31.25
31.125
30.8125
30.4375
30.125
29.8125
29.4375
29.0
28.625
28.4375
28.3125
28.125
27.9375
27.6875
27.3125
27.0625
26.875
26.75
26.5
26.4375
26.3125
26.125
25.8125
25.5625
25.4375
25.25
25.0
24.8125
24.6875
24.5
24.3125
24.1875
24.0
23.875
23.875
23.875
23.9375
23.8125
23.5625
23.25
23.0
22.9375
22.875
22.9375
24.625
33.3125
55.4375
87.5625
114.625
126.0625
127.75
124.6875
117.3125
107.4375
96.4375
85.4375
75.4375
67.375
61.125
56.0
51.5625
48.25
46.625
46.375
46.5625
46.6875
46.625
46.25
45.5
44.4375
43.375
42.375
41.625
40.8125
40.0625
39.3125
38.625
38.0
37.375
36.75
36.25
35.625
35.125
34.6875
34.3125
33.8125
33.375
32.875
32.375
31.875
31.4375
31.0625
30.625
30.25
29.9375
29.625
29.3125
28.9375
28.75
28.5625
28.375
28.25
28.0
27.9375
29.25
37.125
58.3125
88.3125
111.5625
121.25
123.5625
121.875
115.3125
104.8125
93.25
82.75
73.8125
65.875
59.0
53.3125
49.3125
47.3125
47.0
47.0625
47.25
47.375
47.3125
46.6875
45.75
44.6875
43.6875
42.6875
41.9375
41.125
40.375
39.5
38.75
38.0
37.375
36.8125
36.25
35.75
35.25
34.875
34.5625
34.25
33.625
33.0625
32.5625
32.25
32.0
31.5625
31.0
30.75
30.75
30.875
31.0
31.0
31.0
31.125
32.1875
39.875
62.6875
95.0
118.1875
125.6875
125.625
122.0625
114.1875
102.5625
90.25
79.6875
71.1875
63.9375
57.6875
52.6875
49.4375
48.0
47.875
48.0625
48.3125
48.625
48.625
48.125
47.375
46.5
45.375
44.25
43.0
41.75
40.625
39.8125
39.1875
38.625
38.125
37.625
37.0
36.4375
36.0
35.375
34.75
34.375
34.125
33.75
33.25
32.9375
32.6875
32.5
32.25
31.875
31.5
31.1875
30.8125
30.3125
29.875
29.625
29.4375
29.4375
29.625
29.75
29.625
29.25
28.9375
30.1875
40.0
67.9375
106.5625
132.625
139.875
139.25
134.5
124.625
111.5625
98.375
86.3125
76.125
67.75
60.9375
55.75
52.625
51.5625
51.625
51.8125
51.8125
51.6875
51.25
50.3125
49.0625
47.8125
46.6875
45.75
44.75
43.8125
42.9375
42.125
41.3125
40.5
39.8125
39.1875
38.5625
38.0
37.5
37.0
36.5
36.0
35.5625
35.125
34.75
34.4375
34.0625
33.5625
33.1875
32.875
32.6875
32.5
32.25
32.0
31.8125
31.5
31.125
30.75
30.5
30.375
30.125
29.875
29.625
29.4375
29.1875
29.0
28.75
28.5625
28.5
28.375
28.1875
28.0
27.8125
27.5625
27.3125
27.125
27.9375
35.0
59.625
100.125
132.0625
142.125
141.6875
137.3125
127.4375
113.0625
98.0
85.125
75.0
67.1875
61.0
56.0
52.5625
51.125
51.125
51.4375
51.8125
51.875
51.6875
50.9375
49.9375
48.6875
47.5
46.375
45.25
44.1875
43.3125
42.4375
41.6875
40.9375
40.25
39.5
38.75
38.125
37.625
37.1875
36.8125
36.4375
36.0625
35.6875
35.3125
34.875
34.4375
34.0625
33.75
33.5
33.25
33.0
32.6875
32.4375
32.1875
32.75
37.6875
55.625
87.0625
115.4375
128.375
130.375
127.8125
121.1875
110.8125
98.5
86.6875
76.375
67.5625
60.125
54.25
50.9375
50.0
50.25
50.625
51.0
51.25
51.25
51.0
50.375
49.5625
48.6875
47.75
46.625
45.5625
44.5625
43.5
42.5
41.6875
41.0
40.4375
39.875
39.3125
38.8125
38.375
37.8125
37.3125
36.8125
36.4375
36.0
35.5625
35.125
34.6875
34.3125
33.9375
33.5625
33.25
33.0
32.6875
32.3125
32.0625
31.875
31.625
31.375
31.125
31.0
30.6875
30.4375
30.25
30.0625
31.1875
39.9375
67.6875
109.875
140.375
148.625
146.4375
141.1875
131.625
116.9375
100.9375
87.5
77.5
69.625
62.875
57.625
54.4375
53.5625
53.8125
54.125
54.25
54.1875
53.8125
53.0
51.9375
50.75
49.5
48.25
47.0625
46.0
44.9375
43.875
43.0
42.125
41.375
40.6875
40.0625
39.5625
39.0625
38.5625
38.125
37.625
37.125
36.75
36.375
35.9375
35.5625
35.1875
34.875
34.5
34.25
33.9375
33.625
33.375
33.0625
32.8125
32.5
32.25
31.9375
31.6875
31.375
31.1875
30.9375
30.75
30.5
30.3125
30.0625
29.875
29.6875
29.5
29.3125
29.25
29.125
28.9375
29.1875
33.4375
52.0625
90.25
128.625
146.1875
147.4375
142.9375
134.875
122.3125
106.6875
91.875
80.3125
71.375
64.0
58.0625
53.9375
52.3125
52.6875
53.375
53.6875
53.8125
53.5625
53.0625
52.1875
51.125
50.0
48.8125
47.625
46.375
45.25
44.125
43.0625
42.125
41.25
40.4375
39.6875
39.125
38.6875
38.1875
37.6875
37.25
36.875
36.4375
36.1875
35.875
35.5
35.125
34.75
34.375
34.0625
33.75
33.4375
33.125
32.8125
32.5
32.25
32.0
31.75
31.4375
31.1875
30.9375
30.75
30.5625
30.3125
30.125
30.0
29.8125
29.875
31.6875
42.5
71.375
109.125
133.875
139.9375
136.875
130.75
121.125
108.4375
94.875
83.0625
73.875
66.5625
60.4375
55.5625
52.875
52.4375
52.8125
52.9375
52.875
52.75
52.5
52.0
51.125
50.0625
49.0
47.9375
46.75
45.5
44.375
43.375
42.375
41.5625
40.8125
40.0625
39.4375
38.75
38.1875
37.625
37.125
36.6875
36.25
35.875
35.5
35.125
34.8125
34.5
34.1875
33.9375
33.625
33.375
33.0625
32.6875
32.3125
32.0
31.6875
31.4375
31.1875
30.9375
30.625
30.375
30.125
30.0
29.8125
29.625
29.375
29.5625
32.5
46.625
79.5625
118.9375
142.4375
147.6875
145.5
140.25
130.75
117.1875
102.6875
90.375
80.4375
72.0
64.75
58.9375
55.375
54.0625
53.875
54.0
54.125
53.9375
53.4375
52.625
51.625
50.5625
49.5625
48.375
47.1875
46.125
45.0625
44.0625
43.1875
42.3125
41.5
40.75
40.125
39.5625
39.0625
38.625
38.0625
37.5625
37.0625
36.5625
36.0625
35.625
35.3125
34.9375
34.625
34.25
33.9375
33.5625
33.25
33.0
32.75
32.5
32.3125
32.0
31.625
31.3125
31.0625
30.875
30.6875
30.375
30.0625
29.8125
29.625
30.4375
37.9375
62.8125
102.5625
133.5
144.375
144.375
139.4375
129.9375
116.75
102.6875
89.75
78.9375
70.1875
63.125
57.4375
53.75
52.5625
52.875
53.4375
53.6875
53.6875
53.3125
52.5625
51.625
50.5
49.375
48.125
47.0
45.8125
44.75
43.6875
42.6875
41.75
40.9375
40.1875
39.5625
39.0
38.5625
38.125
37.625
37.0625
36.625
36.1875
35.75
35.3125
35.0
34.6875
34.375
34.0625
33.8125
33.5
33.3125
33.0625
32.8125
32.5625
32.3125
32.125
31.8125
31.5
31.25
31.0
30.8125
30.9375
33.375
46.125
76.8125
113.625
135.375
140.25
137.75
131.4375
121.0
106.9375
92.4375
80.5
71.4375
64.1875
58.1875
53.9375
52.25
52.5
53.125
53.3125
53.375
53.3125
53.0
52.1875
51.0625
49.9375
48.75
47.5625
46.375
45.1875
44.125
43.125
42.1875
41.375
40.625
39.875
39.25
38.75
38.25
37.875
37.625
37.25
36.875
36.5
36.125
35.6875
35.25
34.8125
34.4375
34.0
33.625
33.3125
32.9375
32.625
32.3125
32.0
31.75
31.625
31.4375
31.0625
30.8125
30.625
30.5
30.375
31.625
40.625
67.6875
107.5625
136.3125
145.8125
146.5
142.375
133.25
120.5625
107.1875
94.875
83.75
74.25
66.25
59.9375
55.6875
54.0
53.8125
54.0625
54.3125
54.25
53.875
53.1875
52.25
51.1875
50.0
48.75
47.5
46.3125
45.125
44.125
43.1875
42.375
41.5625
40.8125
40.125
39.5625
39.0625
38.6875
38.3125
37.875
37.4375
37.0
36.5625
36.0625
35.5
35.0
34.6875
34.375
34.0625
33.6875
33.375
33.0625
32.8125
32.5
32.25
32.0
31.6875
31.3125
31.0
30.625
30.375
30.0625
29.75
29.5
29.3125
29.1875
29.8125
35.6875
57.875
97.5
132.4375
146.125
146.0625
141.3125
132.6875
120.125
105.4375
91.375
79.75
70.5625
63.25
57.4375
53.6875
52.4375
52.6875
53.1875
53.375
53.3125
53.0
52.25
51.1875
50.125
49.0
47.875
46.6875
45.5
44.375
43.375
42.4375
41.5
40.6875
39.9375
39.25
38.75
38.3125
37.8125
37.4375
37.0625
36.6875
36.3125
35.9375
35.5625
35.25
34.9375
34.5625
34.1875
33.875
33.5
33.125
32.75
32.375
32.0625
31.8125
31.5
31.25
31.0
30.8125
30.5625
30.375
30.1875
30.125
30.125
30.125
30.3125
32.875
45.375
75.75
112.6875
134.5625
139.5
136.9375
129.75
118.3125
103.875
89.625
78.125
69.125
61.9375
56.25
52.3125
50.75
51.0625
51.6875
52.125
52.25
52.1875
51.8125
51.0
49.9375
48.6875
47.4375
46.25
45.125
44.0625
43.0
42.0625
41.125
40.1875
39.4375
38.8125
38.3125
37.875
37.4375
37.0625
36.6875
36.3125
35.9375
35.5625
35.1875
34.8125
34.4375
34.0625
33.6875
33.3125
32.9375
32.625
32.3125
31.9375
31.625
31.5
31.25
31.875
37.6875
58.375
94.0625
126.1875
139.9375
140.875
137.9375
132.125
122.5
109.9375
96.5625
84.4375
74.375
66.3125
59.75
55.1875
53.25
53.0625
53.3125
53.375
53.25
52.875
52.25
51.375
50.375
49.1875
48.0625
46.875
45.6875
44.5
43.5
42.5
41.5
40.6875
39.9375
39.375
38.875
38.375
37.875
37.375
36.9375
36.5
36.0
35.6875
35.3125
34.875
34.625
34.3125
33.9375
33.5
33.1875
32.875
32.625
32.3125
32.0625
31.8125
31.5
31.1875
31.6875
37.125
58.125
95.875
129.0
142.5
142.9375
138.125
129.0
115.5625
100.625
87.75
77.5
69.0
61.75
56.125
52.875
51.8125
52.0
52.375
52.4375
52.25
51.8125
51.0625
50.125
49.0
47.875
46.75
45.5625
44.4375
43.375
42.3125
41.3125
40.375
39.625
39.0
38.4375
37.9375
37.4375
37.0
36.5625
36.125
35.75
35.4375
35.0625
34.75
34.375
34.0625
33.75
33.375
33.0
32.625
32.375
32.0625
31.75
31.5
31.25
30.9375
30.5625
30.3125
30.0625
29.8125
29.625
29.5625
30.125
34.9375
54.9375
92.8125
127.125
140.0625
139.4375
134.25
124.3125
110.125
95.375
82.625
72.5
64.6875
58.5
53.6875
51.0
50.5
51.125
51.6875
51.8125
51.6875
51.4375
50.875
49.875
48.6875
47.5625
46.4375
45.4375
44.375
43.3125
42.375
41.4375
40.5
39.75
39.0
38.25
37.6875
37.1875
36.75
36.375
36.0625
35.625
35.1875
34.8125
34.5
34.125
33.75
33.375
33.0625
32.6875
32.3125
32.0
31.6875
31.4375
31.1875
30.9375
30.625
30.3125
30.0625
29.8125
29.6875
29.5
29.3125
29.0625
28.9375
28.8125
28.6875
30.1875
40.3125
69.875
111.75
139.5625
145.625
143.1875
137.8125
127.9375
114.0625
99.5625
87.0625
77.0
68.4375
61.3125
55.6875
52.1875
51.0
51.0625
51.4375
51.625
51.5625
51.25
50.625
49.75
48.75
47.6875
46.5625
45.4375
44.25
43.125
42.0625
41.0625
40.25
39.4375
38.6875
38.0
37.4375
36.875
36.3125
35.875
35.5
35.0625
34.6875
34.375
34.0
33.625
33.25
32.875
32.5
32.1875
31.875
31.5625
31.3125
31.0
30.75
30.5
30.1875
29.875
29.6875
29.5
29.3125
29.0625
28.875
28.75
28.5
28.5
30.5
42.5
73.875
112.5625
135.0
140.0
138.0
131.5
119.8125
104.875
90.875
79.8125
71.0
63.5
57.125
52.3125
50.0625
50.0
50.4375
50.5625
50.5
50.3125
49.8125
49.0
48.0625
47.125
46.25
45.1875
44.125
43.125
42.1875
41.25
40.3125
39.5625
38.9375
38.5
38.125
37.8125
37.5625
37.3125
37.0
36.625
36.25
35.9375
35.5625
35.1875
34.75
34.3125
33.875
33.5
33.125
32.75
32.4375
32.125
31.8125
31.5625
31.25
30.9375
30.625
30.375
30.125
29.875
29.625
29.5625
31.125
41.1875
68.9375
107.5625
134.125
141.5625
140.1875
134.8125
124.9375
110.6875
95.875
83.5625
73.875
65.8125
59.0
53.875
51.0
50.375
50.4375
50.5625
50.6875
50.6875
50.375
49.625
48.75
47.75
46.8125
45.6875
44.5625
43.5625
42.5625
41.5625
40.6875
39.8125
39.0625
38.375
37.75
37.25
36.75
36.3125
35.875
35.5
35.0
34.5625
34.25
33.9375
33.5625
33.25
32.9375
32.5625
32.25
31.875
31.625
31.375
31.125
30.875
30.5625
30.3125
30.0
29.6875
29.4375
29.25
29.125
29.0
29.4375
34.125
52.875
88.8125
123.9375
140.5625
142.6875
139.3125
131.5
118.6875
103.25
89.1875
78.625
70.25
62.6875
56.1875
51.875
50.0625
49.8125
50.0625
50.25
50.4375
50.3125
49.8125
49.0625
48.1875
47.1875
46.125
44.9375
43.8125
42.8125
41.875
40.9375
40.0625
39.25
38.5
37.75
37.125
36.6875
36.25
35.8125
35.375
35.0
34.625
34.1875
33.75
33.375
33.0
32.625
32.25
32.0
31.75
31.4375
31.0625
30.8125
30.625
30.4375
30.1875
30.0
29.75
29.5
29.1875
29.0
28.875
28.8125
30.25
39.6875
66.9375
104.8125
129.1875
134.75
133.25
128.25
117.625
103.375
89.625
78.25
68.75
60.8125
54.5625
50.75
49.375
49.5625
50.0
50.3125
50.5625
50.6875
50.4375
49.75
48.875
47.9375
46.9375
45.8125
44.625
43.4375
42.4375
41.5
40.625
39.8125
39.0625
38.375
37.75
37.25
36.75
36.3125
35.9375
35.5
35.0625
34.625
34.1875
33.75
33.3125
33.0625
32.75
32.375
31.9375
31.6875
31.375
31.0625
30.875
30.6875
30.375
30.125
29.875
29.625
29.4375
30.8125
40.1875
67.0625
104.9375
132.0
140.875
139.6875
133.1875
122.625
109.4375
95.875
83.75
73.6875
65.375
58.5
53.4375
50.75
50.125
50.3125
50.4375
50.5625
50.5
50.125
49.4375
48.6875
47.75
46.6875
45.625
44.5
43.3125
42.3125
41.3125
40.375
39.5625
38.8125
38.1875
37.6875
37.25
36.75
36.25
35.75
35.25
34.75
34.375
34.0625
33.8125
33.4375
33.0625
32.6875
32.3125
32.0
31.6875
31.4375
31.125
30.875
30.6875
30.4375
30.1875
30.0
31.125
39.625
65.25
102.9375
130.3125
139.1875
138.4375
133.0625
123.125
109.125
94.125
81.1875
71.0
63.0
56.4375
51.75
49.5
49.1875
49.5
49.75
49.9375
49.9375
49.625
49.0
48.125
47.25
46.25
45.1875
44.0625
43.0
41.9375
41.0
40.125
39.3125
38.625
38.0
37.3125
36.8125
36.25
35.6875
35.1875
34.75
34.375
33.9375
33.5
33.125
32.75
32.3125
32.0
31.75
31.4375
31.1875
30.875
30.5625
30.25
29.875
29.5625
29.3125
29.125
29.0
28.8125
29.625
36.625
60.8125
100.625
131.8125
141.375
139.125
133.0
122.75
108.3125
92.875
79.8125
69.9375
62.25
55.9375
51.375
49.25
49.125
49.4375
49.625
49.625
49.5
49.125
48.375
47.5
46.625
45.6875
44.625
43.5
42.5
41.5625
40.6875
39.8125
38.9375
38.1875
37.4375
36.9375
36.375
35.9375
35.5625
35.1875
34.75
34.375
34.0
33.6875
33.3125
32.9375
32.6875
32.375
32.125
31.875
31.625
31.375
31.3125
31.1875
31.0625
31.0
31.0
31.0
31.0
32.0625
39.75
63.625
100.75
129.0625
137.4375
135.8125
130.375
119.625
104.875
90.25
78.625
69.5
61.875
55.5
51.0
48.6875
48.4375
48.9375
49.1875
49.375
49.4375
49.1875
48.625
47.6875
46.6875
45.6875
44.6875
43.6875
42.6875
41.6875
40.8125
40.0
39.1875
38.4375
37.75
37.125
36.5625
36.125
35.6875
35.3125
34.8125
34.375
34.0
33.6875
33.4375
33.125
32.75
32.4375
32.125
31.6875
31.375
31.125
30.875
30.6875
30.4375
30.1875
29.9375
29.6875
29.4375
29.8125
34.6875
54.75
93.375
129.625
144.0625
144.125
140.1875
131.875
118.25
103.3125
90.3125
79.4375
70.0625
62.125
55.9375
52.0625
50.625
50.6875
50.875
50.9375
50.875
50.5625
50.0625
49.1875
48.25
47.3125
46.3125
45.3125
44.1875
43.125
42.125
41.1875
40.375
39.5625
38.875
38.25
37.6875
37.1875
36.625
36.125
35.625
35.125
34.75
34.5
34.1875
33.8125
33.5
33.0625
32.5625
32.25
31.9375
31.6875
31.5
31.1875
30.875
30.625
30.375
30.125
29.875
29.9375
33.0625
48.25
82.375
120.4375
140.5
143.1875
139.875
132.0625
119.0
103.625
89.5625
78.4375
69.4375
61.8125
55.625
51.75
50.3125
50.125
50.1875
50.0625
49.9375
49.75
49.25
48.5625
47.6875
46.9375
46.0625
45.125
44.0
42.875
41.75
40.75
39.875
39.125
38.375
37.75
37.1875
36.6875
36.1875
35.6875
35.1875
34.875
34.5625
34.1875
33.875
33.5
33.0625
32.75
32.375
32.0625
31.75
31.5
31.25
30.9375
30.6875
30.4375
30.1875
29.9375
29.75
29.5
29.3125
29.125
29.125
31.1875
43.75
76.5625
116.5625
138.0
140.6875
137.625
131.125
118.8125
102.875
88.4375
77.5
68.8125
61.375
55.1875
51.0
49.375
49.5
49.875
50.0
50.0
49.9375
49.625
49.0
48.3125
47.625
46.9375
46.125
45.125
44.0625
43.125
42.125
41.125
40.1875
39.375
38.6875
38.1875
37.6875
37.25
36.8125
36.375
35.875
35.375
34.9375
34.5625
34.1875
33.8125
33.4375
33.0
32.6875
32.3125
31.9375
31.6875
31.4375
31.125
30.8125
30.5625
30.25
30.0
29.875
29.75
30.0625
33.9375
51.1875
87.125
124.125
142.0
144.0
139.9375
132.5
121.25
107.4375
93.75
82.0
72.3125
64.3125
58.0
53.5625
51.5
51.0
51.0625
51.0625
50.9375
50.6875
50.125
49.375
48.5
47.625
46.5625
45.4375
44.375
43.375
42.5
41.75
40.9375
40.1875
39.4375
38.75
38.125
37.5
37.0
36.5625
36.1875
35.8125
35.4375
34.9375
34.4375
34.0625
33.75
33.4375
33.0625
32.75
32.4375
32.125
31.8125
31.5625
31.3125
31.0625
30.8125
30.5625
30.3125
30.0625
30.25
34.125
51.5625
88.0
125.5
143.1875
144.4375
139.8125
131.5625
119.0
103.5625
88.8125
77.1875
68.25
60.875
54.875
51.0625
49.8125
50.125
50.5
50.625
50.75
50.6875
50.25
49.4375
48.5
47.4375
46.4375
45.375
44.1875
43.125
42.125
41.125
40.1875
39.4375
38.8125
38.1875
37.5625
37.0
36.5
36.125
35.6875
35.25
34.8125
34.5625
34.25
33.875
33.375
32.9375
32.5
32.25
32.125
31.9375
31.75
31.5625
31.25
30.875
30.5625
30.1875
29.9375
30.25
34.5
53.0
89.875
125.25
140.625
141.625
137.25
128.3125
115.1875
100.5
87.25
76.3125
67.3125
60.0
54.375
51.0625
50.3125
50.5625
50.875
50.875
50.75
50.4375
49.875
49.0
48.125
47.125
46.0625
45.0
44.0625
43.1875
42.25
41.3125
40.5
39.75
39.0
38.375
37.8125
37.3125
37.0625
36.875
36.6875
36.4375
36.1875
35.9375
35.625
35.25
35.0
34.6875
34.375
34.0
33.625
33.1875
32.75
32.3125
32.0
31.75
31.5625
31.25
31.0
31.125
35.25
53.1875
89.25
125.25
142.0625
144.1875
141.125
132.875
118.75
102.6875
88.8125
78.0
69.0625
61.375
55.3125
51.5625
50.1875
50.25
50.5
50.625
50.6875
50.625
50.1875
49.3125
48.3125
47.3125
46.375
45.25
44.25
43.25
42.3125
41.375
40.4375
39.6875
38.9375
38.375
37.8125
37.3125
36.875
36.375
35.9375
35.5625
35.0625
34.5625
34.1875
33.875
33.5625
33.1875
32.8125
32.4375
32.125
31.875
31.625
31.375
31.125
30.875
30.625
30.375
30.125
30.25
33.0
47.375
81.0
119.125
140.125
145.3125
143.6875
136.875
125.25
110.375
95.625
83.5
73.875
65.75
59.0
54.1875
52.0625
51.6875
51.6875
51.5625
51.4375
51.1875
50.625
49.8125
48.875
47.875
46.875
45.75
44.625
43.5625
42.625
41.75
40.875
40.0625
39.3125
38.6875
38.0
37.4375
36.9375
36.5
36.125
35.75
35.3125
34.9375
34.5
34.0625
33.6875
33.3125
33.0
32.75
32.375
32.0625
31.75
31.375
31.0625
30.8125
30.625
30.4375
30.1875
29.9375
29.6875
29.4375
29.1875
29.0625
29.875
37.0
61.5625
102.125
134.5
145.375
144.0625
138.5
128.3125
113.5625
97.9375
84.875
74.8125
66.5
59.375
54.0625
51.3125
50.75
50.8125
50.6875
50.5
50.375
50.0625
49.3125
48.4375
47.4375
46.4375
45.4375
44.4375
43.375
42.375
41.5625
40.8125
39.9375
39.1875
38.5
37.875
37.1875
36.6875
36.1875
35.75
35.3125
34.875
34.4375
34.0
33.5625
33.1875
32.875
32.625
32.3125
32.0
31.6875
31.375
31.0625
30.75
30.5
30.3125
30.125
29.875
29.5625
29.3125
29.0625
28.8125
28.5625
28.375
28.25
28.0625
27.8125
27.875
30.75
45.4375
80.375
120.0
139.625
141.625
138.375
131.0
118.1875
102.3125
87.625
76.25
67.4375
60.1875
54.3125
50.5625
49.375
49.5
49.6875
49.75
49.8125
49.75
49.4375
48.75
47.9375
47.125
46.25
45.25
44.25
43.1875
42.1875
41.1875
40.1875
39.3125
38.5625
38.0
37.5625
37.0625
36.5
36.0
35.5625
35.0625
34.625
34.1875
33.75
33.4375
33.125
32.75
32.3125
31.875
31.5
31.25
31.75
36.375
53.5625
85.75
117.25
132.4375
135.25
133.8125
127.875
117.0625
104.0625
91.75
80.875
71.1875
62.8125
56.125
51.8125
49.9375
49.5
49.5
49.5
49.4375
49.1875
48.5625
47.875
47.1875
46.375
45.5
44.375
43.1875
42.0
41.0625
40.3125
39.6875
39.0
38.25
37.5
36.875
36.375
36.0
35.5
35.0
34.5625
34.125
33.75
33.375
33.0
32.625
32.3125
32.125
31.8125
31.375
31.0
30.6875
30.4375
30.25
30.0
29.75
29.5
29.25
29.0
28.75
28.5
28.375
28.125
27.875
27.75
27.5625
27.5625
29.875
43.5625
78.9375
121.4375
143.3125
145.6875
141.6875
133.4375
119.8125
103.1875
88.4375
77.25
68.625
61.375
55.5625
51.5625
49.75
49.5
49.6875
49.75
49.75
49.5625
49.0625
48.25
47.25
46.1875
45.1875
44.1875
43.25
42.3125
41.4375
40.4375
39.5625
38.8125
38.125
37.5
36.9375
36.4375
35.9375
35.5
35.0625
34.625
34.1875
33.8125
33.4375
33.1875
32.875
32.5
32.0
31.5
31.125
30.875
30.8125
30.6875
30.4375
30.0
29.5625
29.25
29.0625
28.875
28.6875
28.5
28.3125
28.125
27.875
27.6875
27.4375
27.25
27.125
27.0625
26.875
26.625
26.375
26.1875
26.125
27.3125
35.5
61.3125
101.0625
131.0625
140.5
139.1875
132.9375
121.3125
106.375
91.875
79.875
70.125
62.0625
55.5625
50.875
48.375
47.6875
47.875
48.0
48.125
48.0625
47.6875
47.125
46.3125
45.5
44.6875
43.8125
42.875
41.875
40.9375
39.9375
39.0625
38.3125
37.625
36.875
36.1875
35.625
35.125
34.6875
34.25
33.875
33.5
33.125
32.8125
32.4375
31.9375
31.5625
31.25
31.0
30.6875
30.4375
30.1875
29.875
29.5625
29.3125
29.0625
28.8125
28.625
28.375
28.125
27.875
27.6875
27.5
27.25
27.0625
26.875
26.75
26.8125
29.3125
42.25
73.125
109.375
129.4375
132.8125
129.8125
123.375
112.4375
98.1875
84.6875
74.0625
65.625
58.5
52.75
48.9375
47.4375
47.3125
47.5625
47.75
47.875
47.9375
47.6875
47.0
46.125
45.1875
44.25
43.3125
42.375
41.375
40.5
39.625
38.8125
38.0
37.25
36.5
35.875
35.375
34.9375
34.5625
34.125
33.6875
33.1875
32.6875
32.1875
31.875
31.5625
31.3125
31.0
30.6875
30.375
30.0625
29.8125
29.5625
29.375
29.0625
28.6875
28.375
28.125
27.9375
27.6875
27.625
28.25
34.125
54.4375
89.125
120.0
133.4375
135.125
131.625
123.9375
112.3125
98.75
85.6875
74.625
65.8125
58.5
52.6875
48.875
47.375
47.1875
47.1875
47.125
47.125
47.0
46.625
46.0
45.1875
44.3125
43.3125
42.3125
41.3125
40.3125
39.625
38.9375
38.25
37.5
36.8125
36.125
35.5
34.9375
34.4375
34.0
33.625
33.1875
32.8125
32.4375
32.0625
31.6875
31.375
31.0
30.6875
30.375
30.0
29.75
29.5
29.25
29.0
28.75
28.5
28.25
28.0
27.75
27.5
27.25
27.0625
26.9375
26.8125
26.625
26.375
26.125
25.9375
25.6875
25.5
25.375
25.25
25.125
25.0
24.875
24.6875
24.4375
24.3125
24.3125
24.125
24.0
24.125
26.4375
39.0
70.75
111.25
134.8125
137.6875
133.9375
126.0
111.9375
95.875
82.75
72.875
64.8125
57.9375
52.5
48.625
46.4375
45.875
46.0
46.125
46.1875
46.1875
45.9375
45.25
44.375
43.375
42.5
41.6875
40.8125
40.0
39.1875
38.375
37.5
36.6875
35.9375
35.1875
34.6875
34.3125
33.875
33.4375
33.0
32.625
32.1875
31.75
31.375
31.0625
30.75
30.4375
30.125
29.75
29.4375
29.1875
28.9375
28.6875
28.4375
28.25
27.9375
27.6875
27.375
27.125
26.9375
26.8125
26.625
26.3125
26.0625
25.875
25.75
25.5625
25.375
25.1875
25.0625
24.9375
24.75
24.5625
24.4375
24.3125
24.125
23.9375
23.75
23.625
23.8125
26.25
38.4375
68.0625
104.3125
124.75
128.1875
126.125
119.25
106.625
92.375
80.1875
70.375
62.0625
55.25
50.0625
46.6875
45.125
44.9375
45.1875
45.3125
45.375
45.3125
44.9375
44.3125
43.6875
43.0625
42.4375
41.6875
40.9375
40.125
39.3125
38.5
37.6875
36.8125
36.0
35.3125
34.8125
34.3125
33.9375
33.5
33.0625
32.625
32.1875
31.6875
31.25
30.9375
30.625
30.3125
29.9375
29.625
29.3125
29.0
28.6875
28.5
28.1875
27.875
27.5625
27.3125
27.0625
26.9375
26.8125
26.625
26.3125
26.0625
25.8125
25.625
25.375
25.125
24.9375
24.875
24.75
24.625
24.5
24.375
25.0
30.75
50.375
84.625
115.6875
127.6875
128.125
125.375
118.4375
106.1875
91.9375
79.8125
70.625
62.8125
55.875
50.25
46.5
44.6875
44.1875
44.25
44.25
44.3125
44.375
44.0625
43.5
42.875
42.3125
41.5625
40.75
39.8125
38.9375
38.0625
37.1875
36.4375
35.75
35.1875
34.625
34.0625
33.5625
33.0625
32.625
32.1875
31.75
31.375
31.0625
30.75
30.4375
30.0625
29.625
29.25
29.0
28.8125
28.625
28.4375
28.1875
27.875
27.5625
27.25
27.0
26.75
26.5625
26.4375
26.3125
26.0625
25.8125
25.5
25.25
25.1875
25.0625
25.0
24.8125
24.75
26.0
33.875
56.625
91.0625
117.8125
126.375
126.125
122.625
114.0625
100.75
86.4375
74.75
65.9375
58.8125
52.8125
48.1875
45.5
44.5625
44.4375
44.3125
44.3125
44.3125
44.25
43.75
43.125
42.375
41.625
40.8125
40.0
39.25
38.5
37.6875
36.875
36.0625
35.3125
34.75
34.25
33.75
33.3125
32.875
32.4375
31.9375
31.4375
31.0
30.6875
30.375
30.0
29.5625
29.125
28.75
28.5
28.25
28.0
27.75
27.5625
27.375
27.0625
26.6875
26.4375
26.25
26.0625
25.9375
25.75
25.5625
25.375
25.125
24.9375
24.75
24.5625
24.4375
24.3125
24.1875
24.0
23.75
23.625
23.5
23.4375
23.9375
28.0
44.5
76.5625
109.1875
125.125
127.375
123.8125
114.4375
100.9375
87.4375
75.875
66.625
59.0625
52.9375
48.1875
44.875
43.375
43.3125
43.4375
43.5625
43.5625
43.5625
43.25
42.625
41.875
41.25
40.625
39.875
39.0
38.1875
37.4375
36.6875
35.9375
35.1875
34.5625
33.875
33.3125
32.8125
32.4375
32.0625
31.625
31.3125
30.9375
30.5625
30.125
29.75
29.5
29.3125
29.125
29.0
28.75
28.5625
28.4375
28.25
28.125
28.125
28.0625
27.9375
27.8125
27.6875
27.5
27.3125
27.125
26.875
26.6875
26.4375
26.125
25.8125
25.625
25.4375
25.25
25.0625
24.875
24.6875
24.4375
24.1875
24.0
23.8125
24.25
28.6875
45.5625
77.4375
110.0
125.625
126.9375
123.25
115.375
103.125
89.5
77.5625
68.25
60.5625
54.125
49.125
45.5
43.375
42.75
42.875
43.0625
43.25
43.4375
43.4375
42.9375
42.3125
41.6875
41.0625
40.25
39.4375
38.625
37.8125
37.0625
36.3125
35.625
34.9375
34.3125
33.75
33.25
32.8125
32.3125
31.9375
31.625
31.3125
30.9375
30.5
30.125
29.8125
29.5
29.25
29.0625
28.875
28.5
28.25
27.9375
27.6875
27.5
27.3125
27.125
26.8125
26.5625
26.375
26.125
25.9375
25.75
25.5625
25.4375
25.25
25.0
24.75
24.625
24.5625
24.375
24.1875
24.0625
23.9375
23.8125
23.625
23.5
23.375
23.125
23.0625
23.0
22.875
22.75
22.6875
22.5
22.375
22.1875
22.0625
22.0625
22.0
21.8125
21.625
21.5
21.375
21.1875
21.5625
25.6875
42.3125
75.875
111.3125
127.25
127.5625
123.0
114.5
102.3125
88.6875
76.9375
67.9375
60.5625
54.375
49.4375
45.8125
43.6875
43.0
43.0
43.0625
43.125
43.25
43.125
42.625
41.9375
41.25
40.625
39.875
39.0
38.1875
37.4375
36.75
36.0625
35.3125
34.625
34.0
33.4375
32.9375
32.4375
32.0
31.625
31.25
30.875
30.5
30.0625
29.625
29.3125
29.0625
28.875
28.6875
28.375
28.125
27.875
27.625
27.375
27.125
26.9375
26.8125
26.5
26.25
26.0625
25.9375
25.6875
25.4375
25.3125
25.25
25.125
25.0
26.0625
33.0
53.0
83.375
107.75
116.1875
116.6875
115.0625
108.6875
97.4375
85.375
75.0
66.625
59.625
53.625
48.9375
45.75
44.3125
44.0
43.875
43.75
43.75
43.6875
43.4375
43.0
42.3125
41.625
40.8125
40.0625
39.25
38.375
37.625
36.875
36.0625
35.375
34.6875
34.125
33.625
33.1875
32.75
32.375
31.9375
31.5
31.1875
30.875
30.625
30.3125
30.0
29.6875
29.375
29.0625
28.75
28.5
28.1875
27.875
27.625
27.375
27.125
26.875
26.6875
26.5
26.375
26.1875
26.0
25.75
25.625
26.3125
32.125
51.75
85.25
114.5625
125.75
126.9375
125.4375
119.3125
107.625
93.75
81.625
72.3125
64.5625
57.8125
52.3125
48.3125
46.125
45.5
45.375
45.3125
45.3125
45.25
44.875
44.3125
43.625
43.0
42.25
41.5
40.6875
39.8125
38.875
38.0625
37.3125
36.5625
35.9375
35.375
34.75
34.25
33.75
33.3125
32.875
32.4375
32.0625
31.6875
31.375
31.0
30.625
30.3125
30.0625
29.8125
29.625
29.375
29.125
28.8125
28.5
28.1875
27.9375
27.75
27.625
27.4375
27.25
27.0
26.8125
26.5
26.25
26.0
25.875
25.8125
25.6875
25.5
25.3125
25.0625
24.875
24.75
24.625
24.4375
24.4375
25.4375
32.25
54.1875
90.4375
120.5
130.875
130.6875
127.0625
118.4375
104.6875
90.1875
78.1875
68.9375
61.3125
55.0625
50.1875
46.75
44.875
44.4375
44.625
44.6875
44.75
44.8125
44.625
44.0625
43.375
42.5
41.6875
40.875
40.125
39.375
38.625
37.875
37.125
36.375
35.625
34.875
34.375
33.875
33.5
33.125
32.75
32.3125
31.875
31.375
31.0625
30.75
30.4375
30.125
29.75
29.4375
29.125
28.9375
28.75
28.5625
28.3125
28.0625
27.8125
27.625
27.5
28.4375
35.25
55.8125
87.875
113.75
123.125
122.5625
118.125
109.875
98.1875
85.8125
75.0625
66.125
58.625
52.4375
47.8125
45.1875
44.5
44.5625
44.5625
44.5
44.4375
44.1875
43.6875
43.0
42.375
41.75
41.125
40.375
39.625
38.75
37.9375
37.1875
36.5625
36.0
35.5
35.0
34.6875
34.4375
34.1875
33.9375
33.75
33.625
33.5625
33.375
33.0625
32.75
32.375
32.0625
31.75
31.375
31.0
30.625
30.1875
29.875
29.625
29.25
28.9375
28.6875
28.5
28.3125
28.0625
27.75
27.4375
27.1875
26.875
26.625
26.4375
26.3125
26.125
25.8125
25.625
25.4375
25.3125
25.25
25.0625
24.9375
24.8125
24.625
24.5
24.375
24.1875
24.0
23.875
23.75
23.625
23.5
23.3125
23.1875
23.125
23.0
22.875
22.75
22.6875
22.625
22.5625
22.4375
22.3125
22.1875
22.3125
24.0
33.8125
61.9375
102.75
130.4375
135.125
129.9375
122.5625
111.9375
97.5
83.4375
72.625
64.3125
57.5
52.0625
48.0
45.25
43.8125
43.5
43.875
44.25
44.5
44.6875
44.5
44.0
43.25
42.5
41.6875
40.875
40.0
39.1875
38.4375
37.6875
36.9375
36.25
35.625
35.0
34.5
34.0625
33.6875
33.25
32.875
32.5
32.125
31.75
31.3125
31.0
30.6875
30.4375
30.25
29.9375
29.6875
29.375
29.125
28.875
28.5625
28.3125
28.25
29.0625
34.6875
51.6875
79.25
105.25
119.1875
123.0625
122.25
116.75
106.875
95.1875
83.875
73.6875
64.875
57.5625
51.75
47.6875
45.8125
45.375
45.1875
45.1875
45.125
45.0
44.6875
44.3125
43.6875
43.0625
42.3125
41.4375
40.5625
39.75
38.9375
38.1875
37.5
36.75
36.1875
35.5625
35.0
34.4375
33.9375
33.4375
33.0625
32.75
32.3125
31.8125
31.4375
31.125
30.875
30.5625
30.3125
30.0
29.6875
29.375
29.0625
28.8125
28.5625
28.375
28.1875
27.9375
27.625
27.375
27.1875
26.9375
26.75
26.625
26.4375
26.25
26.0625
25.9375
25.75
25.5
25.3125
25.1875
25.0
24.8125
24.5625
24.4375
24.3125
24.125
23.9375
23.8125
23.6875
23.5
23.4375
23.25
23.125
23.0625
23.0625
22.9375
22.75
22.9375
25.375
38.6875
71.625
110.25
129.3125
130.3125
126.5625
117.875
103.75
89.125
77.6875
69.0625
61.8125
55.625
50.9375
47.875
46.125
45.5625
45.75
46.0625
46.125
46.125
46.0
45.5
44.6875
43.875
43.0625
42.1875
41.375
40.5625
39.75
38.9375
38.125
37.375
36.6875
35.9375
35.1875
34.6875
34.1875
33.8125
33.375
32.9375
32.5
32.0625
31.625
31.1875
30.8125
30.625
30.4375
30.25
30.0
29.6875
29.375
29.0625
28.8125
28.5625
28.3125
28.0625
27.8125
27.5625
27.1875
26.9375
26.6875
26.5
26.3125
26.1875
25.9375
25.8125
25.625
25.4375
25.25
25.125
25.0
24.875
24.6875
24.5
24.3125
24.1875
24.0
23.875
23.8125
23.6875
23.5
23.3125
23.25
23.125
23.0
22.875
22.75
22.6875
22.5625
22.4375
22.3125
22.25
22.1875
22.125
22.5
26.5
42.1875
74.4375
110.1875
128.625
131.25
128.9375
122.8125
112.5
99.875
87.25
76.1875
67.1875
60.0
54.1875
49.6875
46.4375
44.6875
44.25
44.3125
44.375
44.4375
44.4375
44.125
43.625
42.9375
42.1875
41.4375
40.6875
39.8125
38.875
38.125
37.5
36.8125
36.0625
35.375
34.8125
34.25
33.625
33.125
32.8125
32.5
32.0625
31.625
31.1875
30.875
30.5
30.1875
29.9375
29.6875
29.5
29.1875
28.875
28.625
28.3125
28.0625
27.8125
27.6875
27.5
27.25
27.875
32.875
49.1875
77.0625
104.5625
119.5
122.6875
121.125
116.375
107.625
96.1875
84.8125
74.875
66.3125
58.9375
52.75
48.0
45.1875
44.125
43.8125
43.75
43.875
43.9375
43.75
43.25
42.6875
42.125
41.5
40.75
39.875
39.0625
38.1875
37.3125
36.625
36.0625
35.375
34.6875
34.1875
33.75
33.3125
32.75
32.25
31.8125
31.375
30.9375
30.6875
30.4375
30.0625
29.6875
29.5
29.25
28.875
28.5625
28.3125
28.1875
27.9375
27.75
27.5625
27.3125
26.9375
26.6875
26.4375
26.25
26.125
26.0
25.75
25.5
25.3125
25.1875
25.0
24.75
24.625
24.625
24.5625
24.4375
24.1875
24.0
23.8125
23.6875
23.5625
23.3125
23.3125
23.1875
23.0625
22.9375
22.75
22.75
22.8125
23.5625
29.625
51.0625
88.25
119.0625
128.125
125.875
120.625
110.5625
96.5
82.4375
71.375
63.25
56.8125
51.625
47.75
45.1875
43.6875
43.3125
43.6875
44.0625
44.3125
44.4375
44.25
43.75
43.0625
42.25
41.4375
40.625
39.8125
39.0625
38.3125
37.625
36.9375
36.3125
35.625
34.9375
34.375
33.9375
33.5
33.125
32.625
32.1875
31.75
31.375
30.9375
30.4375
30.0625
29.8125
29.625
29.4375
29.25
29.0
28.75
28.5
28.25
28.0
27.75
27.5625
27.625
30.5
43.125
69.625
101.0625
120.75
125.9375
125.25
121.8125
114.625
104.0625
92.375
81.8125
72.6875
64.6875
57.6875
52.0
48.1875
46.3125
45.625
45.375
45.3125
45.375
45.1875
44.8125
44.25
43.6875
43.0
42.25
41.4375
40.625
39.8125
39.0
38.1875
37.375
36.6875
36.0
35.375
34.9375
34.5
34.0
33.5625
33.0
32.5
32.125
31.875
31.625
31.375
31.0
30.625
30.3125
29.9375
29.625
29.3125
29.125
28.9375
28.6875
28.4375
28.125
27.875
27.625
27.375
27.1875
27.0625
26.875
26.6875
26.4375
26.25
25.9375
25.6875
25.4375
25.25
25.0
24.8125
24.6875
24.5625
25.25
31.75
54.875
94.0
126.125
136.9375
136.0625
130.125
119.25
105.0625
90.6875
78.5625
69.0
61.5
55.375
50.625
47.375
45.75
45.625
45.9375
46.125
46.25
46.125
45.625
44.875
44.0625
43.3125
42.625
41.875
41.125
40.25
39.375
38.4375
37.6875
37.0
36.3125
35.625
35.0
34.5
34.0625
33.6875
33.25
32.875
32.5
32.125
31.75
31.4375
31.125
30.8125
30.5625
30.375
30.1875
29.875
29.5625
29.3125
29.0625
28.8125
28.625
28.4375
28.25
27.9375
27.75
27.5625
27.375
27.1875
27.0
26.875
26.75
26.625
26.5
26.375
26.375
26.5
26.5625
26.6875
26.8125
26.75
26.6875
26.625
27.375
33.0625
52.3125
86.0
117.5625
130.875
130.6875
126.125
117.0625
103.5625
89.3125
77.4375
68.25
60.75
54.75
50.1875
46.9375
45.3125
45.125
45.5
45.75
45.8125
45.875
45.8125
45.3125
44.5
43.5625
42.75
41.9375
41.1875
40.375
39.5625
38.75
38.0
37.1875
36.4375
35.8125
35.25
34.8125
34.4375
34.0625
33.6875
33.25
32.8125
32.375
32.0625
31.75
31.4375
31.1875
30.9375
30.625
30.3125
30.0625
29.8125
29.5625
29.3125
29.0625
28.8125
28.5625
28.25
27.9375
27.6875
27.5625
27.4375
27.3125
27.1875
26.9375
26.6875
26.4375
26.1875
26.0625
26.0
25.9375
25.75
25.5625
25.4375
25.25
25.0625
24.875
24.75
24.6875
24.5625
24.5
25.25
31.1875
51.6875
88.5625
122.5625
135.3125
135.875
133.9375
128.125
116.8125
102.8125
89.875
79.4375
70.875
63.375
57.0
52.25
49.3125
48.1875
48.125
48.125
48.1875
48.1875
47.8125
47.125
46.375
45.5
44.5625
43.625
42.6875
41.75
40.6875
39.75
38.875
38.0625
37.3125
36.625
36.125
35.6875
35.1875
34.6875
34.1875
33.6875
33.25
32.8125
32.5
32.25
32.0
31.625
31.1875
30.875
30.5625
30.3125
30.125
29.9375
29.75
29.4375
29.125
28.8125
28.5625
28.375
28.125
27.9375
27.6875
27.4375
27.1875
27.0
26.75
26.5625
26.5
26.4375
26.25
26.0625
26.0
26.4375
30.6875
47.5625
80.375
112.8125
128.125
130.1875
127.5625
121.5
111.5
98.6875
85.75
75.25
67.1875
60.5625
54.8125
50.25
47.6875
47.0625
47.25
47.25
47.1875
47.0
46.625
46.0625
45.3125
44.5625
43.9375
43.25
42.5
41.625
40.9375
40.25
39.5
38.8125
38.25
37.75
37.25
36.8125
36.375
35.9375
35.4375
34.9375
34.5
34.0625
33.6875
33.3125
32.9375
32.625
32.25
31.875
31.5
31.0625
30.8125
30.5
30.1875
29.8125
29.4375
29.0
28.75
28.5625
28.375
28.125
27.875
27.75
27.625
27.375
27.125
26.9375
26.75
26.5625
26.375
26.375
28.125
38.0625
64.0625
100.5
127.8125
136.75
135.875
131.375
123.125
110.875
97.125
84.8125
74.5625
66.25
59.625
54.1875
50.25
48.25
47.875
47.875
48.0
48.0625
47.9375
47.5
46.75
45.9375
45.0625
44.25
43.375
42.5
41.6875
40.8125
40.0
39.125
38.1875
37.4375
36.75
36.1875
35.6875
35.3125
34.875
34.4375
34.0
33.5625
33.25
32.8125
32.4375
32.1875
31.875
31.5625
31.25
30.9375
30.625
30.3125
30.125
29.875
29.625
29.375
29.0625
28.75
28.5
28.3125
28.125
28.0
27.75
27.5625
27.3125
27.125
26.9375
27.1875
30.9375
46.6875
79.0
113.9375
132.25
135.0625
132.75
126.5625
115.75
102.375
89.75
79.3125
70.375
62.5625
56.1875
51.5625
49.125
48.4375
48.4375
48.4375
48.5
48.375
47.9375
47.25
46.375
45.5625
44.75
43.875
43.0
42.0
41.0
40.0
39.1875
38.4375
37.6875
37.0
36.4375
36.0
35.375
34.875
34.5
34.1875
33.8125
33.4375
33.0625
32.6875
32.3125
32.0
31.75
31.5
31.25
31.0
30.6875
30.375
30.125
29.8125
29.5625
29.3125
29.0625
28.8125
28.5625
28.3125
28.125
27.9375
27.75
27.8125
29.5625
39.625
66.375
101.5
124.875
131.4375
130.1875
125.125
115.5625
102.75
89.3125
77.8125
68.75
61.5
55.625
51.0625
48.4375
47.75
48.0625
48.375
48.4375
48.3125
48.0625
47.5625
46.8125
46.0
45.1875
44.375
43.5
42.5
41.5
40.5
39.5625
38.8125
38.125
37.5
36.8125
36.125
35.5625
35.0625
34.5625
34.125
33.6875
33.3125
32.9375
32.5625
32.25
32.0
31.6875
31.5
31.3125
31.0625
30.6875
30.3125
29.9375
29.5625
29.3125
29.125
28.875
28.6875
28.4375
28.1875
27.9375
27.6875
27.5625
27.375
27.25
27.125
27.6875
33.1875
53.3125
90.4375
125.4375
139.8125
140.1875
136.3125
129.5
118.5625
104.6875
91.0
79.875
71.125
63.8125
57.5625
52.6875
49.9375
49.1875
49.25
49.375
49.4375
49.375
49.0625
48.3125
47.5
46.625
45.625
44.625
43.75
42.75
41.75
40.8125
39.9375
39.125
38.3125
37.5625
37.0
36.5625
36.1875
35.6875
35.25
34.8125
34.3125
33.875
33.4375
33.125
32.875
32.5625
32.25
31.8125
31.375
30.9375
30.625
30.375
30.0625
29.8125
29.5
29.1875
28.9375
28.6875
28.5
29.0625
34.8125
55.25
90.625
121.4375
134.25
136.0625
132.8125
124.0
111.0
97.0625
84.6875
74.6875
66.375
59.375
53.875
50.25
48.9375
49.0
49.125
49.125
49.125
49.0625
48.625
47.8125
46.9375
46.0
45.125
44.0625
43.0
42.0
41.0
40.0
39.1875
38.4375
37.875
37.25
36.6875
36.1875
35.6875
35.1875
34.75
34.4375
34.125
33.75
33.375
33.0
32.625
32.25
31.9375
31.75
31.5
31.125
30.875
30.625
30.3125
30.0625
29.8125
29.5625
29.375
29.1875
29.125
29.75
35.625
57.25
94.125
124.5625
135.625
135.4375
130.5625
120.875
107.1875
93.125
81.375
71.875
63.9375
57.3125
52.3125
49.5625
48.875
49.125
49.4375
49.625
49.6875
49.5625
49.0625
48.25
47.3125
46.3125
45.3125
44.375
43.3125
42.25
41.25
40.375
39.5
38.625
37.8125
37.1875
36.75
36.3125
35.875
35.5
35.125
34.75
34.375
34.0
33.625
33.3125
33.0
32.625
32.3125
31.9375
31.5625
31.25
31.0
30.75
30.5
30.3125
30.0625
29.8125
29.875
33.0
47.75
80.625
117.6875
138.375
142.4375
139.9375
133.625
122.5
108.3125
94.3125
82.4375
72.8125
64.9375
58.375
53.5625
51.125
50.75
51.0
51.25
51.25
51.0
50.5
49.875
49.0625
48.0625
47.0625
46.0
44.9375
43.875
42.875
41.9375
40.9375
40.125
39.375
38.6875
38.1875
37.6875
37.0625
36.5
36.0
35.5
35.1875
34.875
34.5
34.1875
33.875
33.4375
32.9375
32.5625
32.1875
31.8125
31.5
31.125
30.875
30.625
30.75
34.3125
51.0
85.6875
120.75
137.6875
140.4375
137.0
128.3125
115.0
100.1875
87.0625
76.625
68.25
61.0
55.0625
51.5
50.375
50.4375
50.625
50.75
50.75
50.4375
49.6875
48.8125
47.875
46.875
45.9375
44.9375
43.9375
42.9375
42.0
41.0
40.0
39.1875
38.5
37.9375
37.4375
37.0
36.5625
36.125
35.6875
35.1875
34.75
34.4375
34.125
33.75
33.375
33.0
32.6875
32.4375
32.1875
31.875
31.5
31.1875
30.9375
30.75
30.625
30.6875
32.6875
44.75
75.8125
113.5
134.125
136.75
133.5
126.9375
115.375
100.625
86.625
75.6875
67.25
60.25
54.4375
50.5625
49.25
49.5
50.0
50.1875
50.1875
50.0625
49.75
49.0
48.0625
47.0625
46.1875
45.25
44.3125
43.3125
42.25
41.1875
40.25
39.5
38.8125
38.125
37.5
36.9375
36.4375
35.9375
35.4375
35.0
34.6875
34.375
34.125
33.75
33.375
33.0625
32.75
32.375
32.0625
31.8125
31.5625
31.25
30.875
30.5625
30.3125
30.25
32.8125
46.5625
80.0
119.75
141.875
145.3125
141.8125
135.125
124.25
110.125
96.0625
84.125
74.25
65.875
58.8125
53.8125
51.375
50.9375
51.25
51.375
51.375
51.1875
50.6875
49.9375
49.0625
48.125
47.125
46.1875
45.125
44.0625
43.0
42.0
41.0
40.1875
39.5
38.875
38.3125
37.75
37.1875
36.6875
36.1875
35.75
35.375
35.0
34.6875
34.3125
33.9375
33.5
33.0625
32.75
32.5
32.1875
31.9375
31.625
31.3125
31.0
30.6875
30.5
30.3125
30.5
33.4375
48.625
83.3125
121.9375
141.0625
143.25
140.0625
133.0625
120.6875
104.75
89.9375
78.375
69.125
61.375
55.5
52.125
51.3125
51.5
51.6875
51.625
51.5
51.0625
50.4375
49.5
48.5625
47.5
46.4375
45.375
44.25
43.1875
42.1875
41.25
40.375
39.5625
38.8125
38.1875
37.5625
37.0
36.5625
36.1875
35.8125
35.4375
35.0625
34.625
34.1875
33.8125
33.5625
33.3125
32.9375
32.5625
32.1875
31.875
31.5625
31.3125
31.0625
30.8125
30.5625
30.3125
30.0625
30.125
32.625
46.4375
79.75
117.9375
138.375
140.8125
136.0
127.25
114.5625
99.6875
85.8125
74.625
65.8125
58.6875
53.25
50.1875
49.6875
50.3125
50.8125
51.0
51.125
51.0
50.5625
49.8125
48.875
47.9375
46.9375
45.8125
44.6875
43.5625
42.5
41.5625
40.75
39.875
39.125
38.5
38.0
37.4375
36.9375
36.5
36.0625
35.625
35.1875
34.75
34.3125
33.9375
33.5625
33.1875
32.75
32.375
32.0
31.75
31.5
31.3125
31.125
30.875
30.5625
30.25
29.9375
29.6875
30.125
35.125
55.375
94.0
129.875
144.25
144.5625
140.6875
132.875
120.625
105.625
91.0
79.25
70.125
62.5625
56.4375
52.375
51.0
51.0625
51.25
51.3125
51.25
50.9375
50.375
49.5625
48.625
47.625
46.625
45.5625
44.5
43.5
42.5
41.5625
40.6875
39.875
39.125
38.4375
37.8125
37.3125
36.75
36.1875
35.75
35.4375
35.125
34.8125
34.4375
34.0625
33.625
33.1875
32.8125
32.5
32.25
32.0
31.75
31.4375
31.125
30.8125
30.5
30.25
30.0
29.875
29.6875
29.5
29.4375
31.8125
45.125
77.9375
117.0625
140.0
145.3125
142.0
133.5625
120.75
105.75
91.8125
80.4375
71.1875
63.25
56.8125
52.5
50.6875
50.3125
50.3125
50.3125
50.25
50.125
49.6875
48.875
48.0
47.0
46.0
44.9375
43.9375
43.0
42.0625
41.125
40.125
39.25
38.5
37.875
37.3125
36.875
36.4375
36.0
35.5
35.0625
34.6875
34.3125
33.9375
33.5
33.1875
32.8125
32.5
32.125
31.875
31.625
31.3125
31.0625
30.75
30.5
30.25
30.0
29.75
29.5625
29.375
29.125
28.9375
28.8125
30.0625
39.0625
66.4375
105.5625
132.125
139.0625
137.5
131.6875
120.4375
105.6875
91.125
79.375
70.125
62.4375
56.0
51.4375
49.375
49.25
49.5625
49.6875
49.75
49.6875
49.3125
48.75
47.875
47.125
46.4375
45.75
45.0
44.125
43.25
42.3125
41.375
40.5625
39.8125
39.0625
38.5
38.0625
37.625
37.1875
36.75
36.3125
35.8125
35.25
34.75
34.375
34.0
33.6875
33.375
33.0625
32.6875
32.25
31.875
31.5
31.25
30.9375
30.6875
30.4375
30.1875
30.0
29.8125
29.625
29.6875
31.5625
42.8125
72.5
111.5625
136.75
142.9375
141.5625
136.75
127.0
113.125
98.8125
86.5625
76.1875
67.1875
59.75
54.25
51.25
50.5625
50.6875
50.8125
50.75
50.625
50.375
49.75
48.9375
48.0
47.0
46.0625
45.125
44.0625
43.0625
42.125
41.25
40.375
39.5625
38.75
38.0
37.4375
36.9375
36.5
36.0625
35.75
35.5
35.0625
34.5625
34.0
33.625
33.3125
33.0
32.6875
32.4375
32.0625
31.8125
31.5
31.25
30.9375
30.625
30.375
30.5625
33.75
49.1875
82.8125
119.0625
138.1875
142.4375
141.3125
135.3125
124.0
110.25
96.6875
84.3125
73.6875
64.9375
58.0
53.1875
50.875
50.1875
50.1875
50.25
50.125
50.0
49.625
48.9375
48.0625
47.125
46.1875
45.1875
44.1875
43.125
42.125
41.125
40.3125
39.4375
38.625
37.875
37.25
36.75
36.375
36.0
35.5
35.0
34.5625
34.125
33.75
33.5
33.3125
33.0
32.625
32.25
31.9375
31.5
31.125
30.875
30.75
30.5625
30.375
30.125
30.125
32.1875
44.3125
75.1875
112.1875
132.875
137.125
135.125
129.25
118.0
103.5
89.625
78.3125
68.9375
61.0625
54.875
51.0625
49.8125
50.0
50.4375
50.5625
50.5625
50.4375
49.9375
49.1875
48.25
47.3125
46.375
45.3125
44.3125
43.3125
42.375
41.4375
40.4375
39.5625
38.8125
38.25
37.75
37.25
36.75
36.25
35.75
35.3125
34.8125
34.3125
33.9375
33.625
33.25
32.875
32.5
32.0625
31.75
31.5
31.25
31.0
30.75
30.5
30.1875
29.9375
29.6875
29.4375
30.0625
36.0
58.1875
97.1875
131.3125
145.1875
145.875
141.875
133.25
120.0
105.1875
91.5625
80.3125
71.125
63.3125
57.0625
53.1875
51.8125
51.5625
51.5
51.375
51.25
50.8125
50.1875
49.3125
48.3125
47.3125
46.1875
45.1875
44.125
43.125
42.1875
41.3125
40.5625
39.75
39.0
38.3125
37.625
37.0625
36.5625
36.0625
35.625
35.3125
34.9375
34.5625
34.1875
33.75
33.25
32.9375
32.6875
32.4375
32.125
31.875
31.5
31.125
30.6875
30.25
30.0
30.375
34.9375
53.75
90.0
124.375
139.8125
141.75
138.9375
131.375
118.0625
102.625
89.0
78.0625
68.9375
61.0625
54.875
51.0
49.875
50.0
50.1875
50.25
50.125
49.875
49.3125
48.4375
47.5
46.5625
45.625
44.5625
43.4375
42.4375
41.5
40.625
39.6875
38.9375
38.25
37.625
37.0
36.5
36.0625
35.6875
35.3125
34.875
34.5
34.125
33.75
33.3125
33.0
32.6875
32.4375
32.125
31.75
31.4375
31.125
30.8125
30.5625
30.3125
30.125
29.875
29.8125
30.25
34.9375
54.9375
92.5625
125.6875
138.5
139.25
134.9375
125.75
112.3125
97.5625
84.375
73.9375
65.5625
58.6875
53.5
50.8125
50.3125
50.5
50.5
50.25
50.125
49.8125
49.3125
48.5
47.625
46.625
45.625
44.6875
43.6875
42.6875
41.75
40.9375
40.0625
39.25
38.5
37.75
37.0625
36.5625
36.125
35.75
35.3125
34.8125
34.4375
34.0
33.625
33.3125
33.0625
32.75
32.375
32.0625
31.75
31.375
31.0625
30.8125
30.5
30.1875
29.9375
29.75
29.5
29.25
29.1875
30.5
39.625
67.5
108.25
136.9375
145.5
144.5625
139.375
129.5
115.8125
101.4375
88.5625
77.875
69.0
61.4375
55.5625
52.0
50.875
50.9375
51.0
50.9375
50.6875
50.375
49.8125
49.0
48.0
47.0
45.9375
44.875
43.8125
42.8125
41.8125
40.875
40.0625
39.3125
38.625
38.0
37.4375
36.8125
36.3125
35.875
35.5
35.1875
34.8125
34.4375
34.0
33.5625
33.125
32.6875
32.25
31.9375
31.625
31.3125
30.9375
30.5625
30.1875
29.875
29.625
29.4375
29.3125
29.3125
31.125
42.75
74.0625
114.25
138.625
144.3125
142.0625
134.625
121.875
106.5
92.3125
80.6875
71.125
63.0625
56.5625
52.3125
50.6875
50.5625
50.625
50.625
50.5625
50.375
49.875
49.0
47.9375
46.875
45.875
44.875
43.8125
42.8125
41.8125
40.9375
40.125
39.3125
38.5625
37.8125
37.1875
36.6875
36.25
35.75
35.375
35.0
34.5
34.0
33.5625
33.1875
33.0
32.75
32.4375
32.125
31.875
31.5625
31.1875
30.9375
30.75
30.75
30.6875
30.4375
30.25
30.1875
30.0625
30.4375
34.5625
52.125
87.5625
123.0625
139.5
140.5
135.3125
125.0625
110.5
95.0625
81.9375
71.625
63.375
56.75
51.9375
49.4375
49.0
49.3125
49.625
49.75
49.6875
49.4375
48.9375
48.0625
47.0625
46.0
44.875
43.75
42.6875
41.75
41.0
40.1875
39.3125
38.5625
38.0
37.4375
36.8125
36.125
35.5
35.0625
34.75
34.4375
34.125
33.75
33.4375
33.125
32.75
32.375
32.0
31.6875
31.375
31.125
30.875
30.5625
30.3125
30.0
29.75
29.5625
29.375
29.1875
29.75
35.5
57.0625
95.5625
128.6875
140.625
142.5
141.5625
134.875
122.375
107.8125
94.125
82.0625
71.8125
63.6875
57.25
52.8125
50.8125
50.4375
50.5
50.5625
50.4375
50.3125
49.9375
49.25
48.3125
47.3125
46.25
45.1875
44.0625
43.0625
42.125
41.1875
40.375
39.5625
38.8125
38.125
37.5625
37.125
36.625
36.1875
35.6875
35.1875
34.6875
34.25
33.8125
33.5
33.3125
33.0
32.6875
32.3125
31.9375
31.5625
31.25
31.0
30.8125
30.625
30.4375
30.125
29.8125
29.5
29.25
29.0625
29.4375
34.4375
54.6875
92.5625
127.3125
142.125
143.625
139.625
130.9375
117.5625
101.75
87.4375
76.5625
67.875
60.4375
54.625
51.1875
50.125
50.0625
50.125
50.125
49.9375
49.625
49.0
48.1875
47.3125
46.375
45.3125
44.3125
43.3125
42.3125
41.375
40.5625
39.75
38.9375
38.1875
37.5
36.9375
36.4375
35.875
35.375
35.0
34.6875
34.375
34.0
33.5625
33.125
32.625
32.25
32.0
31.75
31.5
31.1875
30.875
30.625
30.8125
34.5
51.0
84.375
117.5625
133.1875
135.1875
132.125
124.3125
111.875
97.4375
84.1875
73.5625
64.8125
57.375
51.875
49.0625
48.5625
48.875
49.0
49.0625
49.0625
48.8125
48.25
47.375
46.4375
45.5
44.5
43.5625
42.5625
41.625
40.625
39.6875
38.875
38.1875
37.625
37.125
36.6875
36.25
35.875
35.5
35.1875
34.9375
34.75
34.5625
34.375
34.1875
34.0
33.75
33.4375
33.1875
32.9375
32.625
32.25
31.875
31.5625
31.25
30.875
30.5625
30.3125
30.0625
30.25
33.8125
50.6875
86.6875
124.5
142.75
144.6875
140.8125
131.75
117.5
101.4375
87.25
76.1875
67.375
60.1875
54.4375
50.75
49.4375
49.625
50.0
50.1875
50.125
49.9375
49.4375
48.625
47.625
46.5625
45.4375
44.3125
43.3125
42.3125
41.3125
40.5
39.75
39.0
38.3125
37.625
36.9375
36.4375
35.9375
35.5625
35.3125
34.9375
34.5
34.125
33.625
33.125
32.8125
32.5625
32.25
32.0
31.75
31.375
31.0
30.6875
30.375
30.1875
30.0
29.8125
29.5
29.3125
29.0625
29.25
33.125
50.5625
86.875
123.875
141.375
143.4375
139.75
130.9375
116.6875
100.875
87.25
76.6875
68.0
60.5625
54.5625
50.8125
49.4375
49.4375
49.75
49.9375
49.875
49.625
49.125
48.3125
47.3125
46.375
45.375
44.3125
43.3125
42.3125
41.25
40.25
39.375
38.625
38.0
37.375
36.8125
36.25
35.75
35.1875
34.6875
34.375
34.125
33.8125
33.4375
33.0625
32.6875
32.3125
31.875
31.5
31.25
31.0
30.75
30.5
30.25
30.0
29.875
31.5625
42.1875
71.3125
109.0625
132.375
137.875
135.375
128.4375
117.125
102.625
88.375
76.8125
67.5
59.6875
53.5
49.8125
48.75
49.0625
49.4375
49.5625
49.5625
49.3125
48.75
47.875
47.0625
46.25
45.375
44.5
43.625
42.6875
41.8125
40.9375
40.125
39.5
39.0
38.5
38.0
37.6875
37.25
36.75
36.25
35.75
35.25
34.875
34.5
34.1875
33.8125
33.4375
33.0625
32.625
32.3125
32.0
31.625
31.25
30.9375
30.625
30.3125
30.0
29.75
29.5625
29.4375
30.25
37.0625
61.25
101.25
133.5
144.625
144.5625
139.875
129.1875
113.5
97.4375
84.4375
74.25
65.6875
58.625
53.5
50.8125
50.125
50.375
50.6875
50.8125
50.625
50.1875
49.625
48.875
47.875
46.6875
45.5625
44.5625
43.5625
42.5625
41.625
40.6875
39.9375
39.1875
38.375
37.625
37.125
36.625
36.25
35.875
35.5
35.125
34.75
34.3125
33.8125
33.4375
33.125
32.8125
32.5
32.25
31.875
31.5625
31.25
30.9375
30.6875
30.4375
30.1875
30.0625
29.8125
29.75
32.25
46.0
79.1875
118.5
141.0
144.9375
141.375
133.5625
121.3125
106.625
92.3125
80.1875
70.25
62.1875
55.9375
51.9375
50.5
50.3125
50.4375
50.4375
50.375
50.125
49.625
48.875
48.0
47.0625
46.125
45.0625
44.0625
43.125
42.125
41.125
40.125
39.25
38.5
37.9375
37.4375
37.0
36.5
36.0625
35.5625
35.0625
34.5625
34.3125
34.0625
33.8125
33.4375
33.0
32.5625
32.125
31.75
31.375
31.125
30.9375
30.75
30.5625
30.25
30.0
29.75
29.5
29.4375
30.4375
38.25
64.25
104.125
132.5
140.375
138.9375
133.3125
122.25
107.3125
92.25
79.9375
70.3125
62.3125
55.75
51.4375
49.875
50.0625
50.3125
50.375
50.4375
50.3125
49.9375
49.25
48.375
47.375
46.4375
45.5
44.5625
43.75
43.0
41.9375
40.9375
40.5
40.3125
39.8125
39.0625
38.4375
38.0625
37.5625
36.75
36.25
36.0625
35.8125
35.3125
34.75
34.375
34.125
33.9375
33.3125
32.5
32.25
32.25
32.0
31.625
31.375
31.125
30.9375
30.625
30.25
29.9375
30.3125
35.6875
56.625
94.9375
130.0
145.0
145.375
139.6875
129.6875
115.25
99.1875
85.625
75.5625
67.3125
60.0625
54.4375
51.3125
50.5
50.625
50.8125
50.9375
51.0625
50.875
50.3125
49.375
48.375
47.375
46.3125
45.1875
44.1875
43.1875
42.25
41.25
40.375
39.625
38.9375
38.375
37.875
37.375
36.8125
36.375
35.875
35.375
35.125
34.8125
34.4375
34.0625
33.8125
33.4375
32.9375
32.5625
32.3125
32.125
31.875
31.6875
31.375
31.0
30.625
30.375
30.1875
31.0625
38.0
61.75
100.875
133.125
145.375
145.5
140.6875
131.0625
116.5625
100.4375
86.6875
76.0625
67.375
60.0
54.4375
51.5625
51.0
51.25
51.375
51.4375
51.3125
51.0
50.375
49.4375
48.375
47.3125
46.3125
45.25
44.125
43.0
42.0
41.0625
40.3125
39.5625
38.8125
38.1875
37.625
37.0625
36.5
36.0
35.6875
35.375
34.9375
34.625
34.25
33.8125
33.3125
33.0
32.625
32.375
32.125
31.875
31.625
31.5
33.4375
45.0625
75.125
112.1875
134.1875
138.75
136.1875
129.625
118.0625
103.3125
89.0625
77.5
68.3125
60.5
54.1875
50.5
49.5625
49.9375
50.375
50.625
50.625
50.375
49.75
48.9375
48.0625
47.1875
46.25
45.3125
44.3125
43.3125
42.3125
41.375
40.5
39.8125
39.25
38.75
38.5
38.25
38.0
37.625
37.3125
36.9375
36.5625
36.1875
35.875
35.625
35.25
34.75
34.3125
33.9375
33.5
33.25
33.0
32.8125
32.5625
32.375
33.25
41.4375
67.625
107.0
136.0
145.6875
144.8125
138.625
127.0
111.8125
96.4375
83.25
72.75
64.5
58.0625
53.6875
51.8125
51.625
51.875
51.9375
51.9375
51.9375
51.5625
50.8125
49.75
48.625
47.5625
46.4375
45.375
44.3125
43.3125
42.4375
41.5625
40.6875
39.9375
39.25
38.6875
38.1875
37.6875
37.3125
36.875
36.4375
35.9375
35.5
35.0625
34.8125
34.5
34.1875
33.8125
33.4375
33.0625
32.75
32.4375
32.1875
32.0
31.8125
31.5625
31.3125
31.0625
32.125
41.125
69.5
111.125
140.625
150.1875
149.75
143.4375
131.4375
115.625
100.0
87.0
76.6875
68.125
60.9375
55.5625
52.75
52.25
52.6875
53.125
53.1875
53.0625
52.6875
52.0
50.875
49.75
48.625
47.5
46.375
45.25
44.25
43.3125
42.1875
41.25
40.5
39.875
39.375
38.8125
38.3125
37.8125
37.3125
36.75
36.3125
36.0
35.6875
35.375
35.0625
34.625
34.1875
33.6875
33.25
32.9375
32.6875
32.4375
32.125
31.8125
31.375
31.0
30.75
30.5625
30.4375
31.9375
42.5625
73.375
115.125
142.25
149.375
146.75
139.0
125.9375
110.0
95.25
82.9375
72.75
64.375
57.8125
53.5625
52.0
52.0
52.375
52.5
52.375
52.0
51.5
50.75
49.8125
48.6875
47.625
46.5
45.4375
44.375
43.375
42.375
41.5
40.6875
40.0
39.3125
38.75
38.125
37.625
37.125
36.75
36.3125
35.875
35.5
35.0625
34.6875
34.3125
34.0
33.75
33.4375
33.0625
32.75
32.375
32.0625
32.0625
34.4375
47.4375
78.9375
115.5625
136.0625
139.625
135.8125
128.0
115.9375
101.4375
87.75
76.6875
67.8125
60.25
54.3125
51.0
50.4375
51.125
51.6875
52.0
52.125
51.9375
51.4375
50.5625
49.5
48.4375
47.375
46.375
45.375
44.375
43.3125
42.3125
41.4375
40.6875
39.9375
39.3125
38.6875
38.125
37.625
37.125
36.6875
36.1875
35.8125
35.4375
35.0625
34.6875
34.25
33.8125
33.3125
33.0625
32.8125
32.625
32.5
32.1875
31.9375
31.5625
31.1875
31.0
31.5625
37.6875
60.75
101.5
137.125
150.75
150.4375
144.8125
134.375
119.5
103.4375
89.3125
78.1875
69.125
61.625
55.9375
53.0
52.375
52.6875
53.0
53.125
53.0625
52.6875
51.9375
51.0625
49.9375
48.6875
47.5
46.3125
45.1875
44.125
43.125
42.1875
41.375
40.625
39.9375
39.25
38.6875
38.125
37.5625
37.0625
36.6875
36.375
36.0
35.625
35.1875
34.75
34.3125
34.0
33.75
33.4375
33.125
32.8125
32.5
32.125
31.8125
31.5625
31.3125
31.125
30.875
30.625
30.4375
30.25
30.0
30.375
35.75
57.375
97.625
133.375
147.375
147.375
141.6875
130.625
115.125
98.5
84.4375
73.8125
65.5625
58.875
53.875
51.4375
51.1875
51.75
52.0
52.0625
52.0
51.6875
50.9375
49.9375
48.8125
47.8125
46.75
45.6875
44.625
43.5625
42.5625
41.625
40.6875
39.9375
39.25
38.625
38.0625
37.5625
37.125
36.625
36.125
35.6875
35.375
35.0
34.6875
34.25
33.8125
33.4375
33.25
33.0625
32.75
32.3125
32.0
31.75
31.5
31.3125
32.125
39.25
63.375
101.125
129.25
138.25
138.0625
133.125
122.5
108.125
93.75
81.625
71.5625
63.0
56.0625
51.4375
49.6875
49.8125
50.4375
50.9375
51.3125
51.4375
51.1875
50.6875
49.9375
49.0
48.0625
47.0625
46.0
44.875
43.8125
42.75
41.6875
40.75
40.0
39.4375
38.875
38.3125
37.8125
37.3125
36.8125
36.3125
35.8125
35.375
35.125
34.6875
34.3125
33.9375
33.5
33.125
32.8125
32.625
32.375
32.0625
31.75
31.5
31.1875
30.875
30.625
30.4375
30.3125
30.125
29.8125
29.5625
29.3125
29.1875
31.0625
43.375
76.6875
119.0
143.375
148.3125
146.5625
139.375
125.3125
108.5
93.75
82.0
72.4375
64.5
58.25
53.875
51.8125
51.5625
51.8125
51.9375
51.8125
51.625
51.125
50.3125
49.3125
48.25
47.25
46.25
45.25
44.3125
43.3125
42.3125
41.3125
40.375
39.625
38.9375
38.375
37.8125
37.375
36.875
36.4375
35.9375
35.5625
35.125
34.75
34.375
34.0625
33.625
33.1875
32.8125
32.5625
32.3125
32.125
31.8125
31.5
31.1875
30.875
30.5625
30.3125
30.125
29.9375
29.75
29.5
29.25
29.0
28.625
28.375
28.3125
28.25
28.125
27.9375
27.6875
27.5
27.1875
26.9375
26.8125
26.75
26.6875
26.5625
26.4375
26.25
26.0
25.8125
25.75
25.625
25.8125
28.3125
42.0625
76.5625
118.6875
141.875
146.125
143.3125
135.0
121.0
104.4375
89.25
77.3125
68.125
60.75
54.8125
50.75
48.875
48.6875
49.0625
49.25
49.3125
49.1875
48.9375
48.375
47.5
46.5
45.5
44.4375
43.4375
42.5625
41.6875
40.8125
40.0
39.25
38.5
37.6875
36.9375
36.3125
35.875
35.5625
35.25
34.875
34.4375
33.9375
33.4375
32.9375
32.5625
32.3125
32.0
31.75
31.5
31.1875
30.875
30.875
33.25
44.625
70.4375
100.9375
120.1875
126.4375
126.875
122.625
112.875
100.3125
87.9375
77.125
67.9375
60.0
53.375
49.0625
47.375
47.1875
47.375
47.5
47.5625
47.4375
47.0625
46.4375
45.6875
44.8125
43.9375
43.0625
42.1875
41.25
40.25
39.4375
38.6875
38.0625
37.4375
36.9375
36.4375
36.0625
35.5625
35.125
34.875
34.6875
34.4375
34.1875
34.0
33.75
33.5
33.125
32.75
32.375
32.0625
31.6875
31.4375
31.1875
30.9375
30.625
30.25
29.9375
29.6875
29.4375
29.1875
28.9375
28.625
28.3125
28.0625
27.8125
27.625
27.4375
27.25
27.0625
26.875
26.6875
26.4375
26.25
26.0625
26.0
25.9375
25.8125
25.6875
25.4375
25.1875
24.9375
24.75
24.75
24.6875
24.5625
24.4375
24.3125
24.1875
24.0
23.875
23.75
23.8125
24.8125
32.3125
58.25
101.875
135.3125
143.5
139.9375
132.25
119.75
103.8125
88.75
77.0625
68.0
60.5625
54.75
50.4375
47.625
46.4375
46.5
46.875
47.1875
47.3125
47.375
47.125
46.5
45.625
44.5625
43.5625
42.5625
41.625
40.6875
39.875
39.125
38.3125
37.5625
36.8125
36.125
35.4375
34.9375
34.5625
34.3125
34.0
33.625
33.125
32.625
32.25
31.9375
31.625
31.3125
31.125
30.9375
30.625
30.1875
29.8125
29.5
29.3125
29.0625
28.8125
28.625
28.4375
28.125
27.875
27.625
27.4375
27.3125
27.125
26.875
26.625
26.4375
26.25
26.0
25.8125
25.8125
25.8125
27.25
35.6875
59.125
93.4375
119.875
129.4375
131.1875
128.5625
120.0625
107.25
93.5625
81.375
71.1875
62.75
55.9375
50.6875
47.1875
45.8125
45.625
45.6875
45.6875
45.75
45.75
45.4375
44.875
44.0625
43.1875
42.3125
41.375
40.4375
39.625
38.8125
38.0625
37.3125
36.5625
35.9375
35.25
34.5625
34.0
33.625
33.25
33.0
32.625
32.1875
31.75
31.3125
30.9375
30.625
30.3125
30.0625
29.875
29.5625
29.125
28.8125
28.5
28.3125
28.125
27.9375
27.6875
27.4375
27.1875
26.875
26.625
26.4375
26.25
26.125
26.0
25.75
25.4375
25.1875
25.0625
24.9375
24.75
24.625
24.5
24.4375
24.25
23.9375
23.75
23.625
23.625
23.5625
23.375
23.125
23.0625
23.0625
23.0
22.9375
22.9375
23.8125
29.875
51.1875
88.0625
119.0
128.625
126.9375
121.3125
110.75
96.625
83.0
72.625
64.8125
58.3125
52.875
48.75
46.125
44.875
44.6875
44.6875
44.75
44.75
44.625
44.4375
43.9375
43.125
42.3125
41.375
40.5625
39.6875
38.8125
38.0
37.25
36.5
35.875
35.125
34.4375
33.8125
33.3125
32.9375
32.6875
32.375
32.0625
31.6875
31.1875
30.75
30.3125
30.0
29.875
29.6875
29.375
29.125
28.8125
28.5
28.1875
27.875
27.5625
27.3125
27.25
27.1875
27.125
27.6875
33.1875
51.1875
81.3125
109.6875
123.3125
125.8125
124.625
119.25
109.5625
98.25
86.9375
76.75
68.0625
60.625
54.375
49.5625
46.8125
45.875
45.5625
45.4375
45.375
45.3125
45.0
44.375
43.6875
43.0625
42.4375
41.75
40.9375
40.0625
39.125
38.125
37.25
36.5
35.875
35.3125
34.75
34.3125
33.875
33.375
32.8125
32.3125
31.8125
31.5625
31.3125
31.1875
30.875
30.5
30.125
29.6875
29.25
29.0
28.75
28.6875
28.4375
28.1875
28.0
27.8125
27.9375
31.4375
47.0625
79.0
112.0625
127.8125
129.375
126.9375
120.8125
109.25
95.0625
82.5
72.75
64.8125
57.8125
52.0625
48.0
45.9375
45.375
45.3125
45.25
45.25
45.125
44.75
44.125
43.375
42.6875
41.9375
41.1875
40.3125
39.4375
38.5
37.6875
36.8125
36.0
35.3125
34.8125
34.3125
33.8125
33.3125
32.8125
32.3125
31.8125
31.5
31.25
30.9375
30.5625
30.1875
29.875
29.5
29.1875
28.875
28.6875
28.5625
28.375
28.125
27.875
27.5
27.1875
26.9375
26.8125
26.625
26.4375
26.1875
26.0
25.75
25.5625
25.4375
26.375
33.5625
57.8125
96.3125
124.0
129.8125
127.8125
124.25
114.5625
99.5
85.1875
74.375
65.8125
58.375
52.3125
47.75
44.875
43.8125
44.0625
44.375
44.3125
44.3125
44.1875
43.75
43.125
42.4375
41.9375
41.3125
40.5
39.625
38.875
38.125
37.375
36.6875
36.125
35.625
35.1875
34.875
34.5
34.125
33.875
33.75
33.625
33.375
33.0
32.5625
32.1875
31.8125
31.5
31.125
30.75
30.5
30.25
29.875
29.5
29.0625
28.75
28.625
28.5
28.25
28.0
27.75
27.4375
27.0
26.75
26.5625
26.5
26.3125
26.125
26.0
25.8125
25.6875
26.25
31.9375
52.75
89.625
122.25
134.3125
133.8125
128.6875
119.4375
106.375
92.0625
79.8125
70.5
63.0
56.375
51.0
47.3125
45.75
45.625
45.75
45.75
45.75
45.625
45.3125
44.75
43.9375
43.1875
42.375
41.5625
40.6875
39.8125
39.0
38.1875
37.4375
36.6875
35.9375
35.3125
34.875
34.375
33.9375
33.4375
33.0
32.625
32.25
31.875
31.6875
31.5
31.125
30.6875
30.25
30.0
29.6875
29.375
29.125
28.9375
28.6875
28.4375
28.125
27.875
27.625
27.5625
27.4375
27.25
27.0
26.8125
26.5625
26.25
26.0
25.9375
25.8125
25.625
25.4375
25.3125
25.125
24.9375
24.75
24.75
24.6875
24.5
24.3125
24.1875
24.0625
24.1875
26.5
38.75
68.5625
105.5625
127.875
133.375
132.125
125.125
112.75
98.375
85.4375
74.6875
65.8125
58.5625
52.75
48.375
45.625
44.75
44.6875
44.75
44.8125
44.9375
44.8125
44.4375
43.75
43.125
42.4375
41.6875
40.8125
39.875
39.0
38.125
37.3125
36.5625
35.8125
35.1875
34.625
34.0625
33.5625
33.0625
32.625
32.25
31.9375
31.625
31.25
30.9375
30.5
30.0
29.6875
29.5
29.25
29.0
28.8125
28.5625
28.3125
28.0
27.6875
27.4375
27.3125
27.1875
26.9375
26.75
26.5
26.25
25.9375
25.6875
25.5625
25.4375
25.25
25.0625
24.875
24.75
24.4375
24.25
24.1875
24.0625
23.9375
23.8125
23.6875
23.5625
23.375
23.25
23.1875
23.0625
23.0625
23.0
22.875
22.75
22.6875
22.6875
22.6875
22.75
22.8125
22.9375
23.0625
23.0625
23.125
23.3125
23.4375
23.5625
24.25
28.75
45.375
77.3125
109.8125
124.125
125.0625
121.75
113.0625
99.75
86.1875
75.0625
66.0
58.375
52.375
47.9375
44.875
42.625
41.5625
41.75
42.25
42.4375
42.5625
42.75
42.5625
42.0625
41.375
40.5625
39.8125
39.125
38.375
37.6875
37.0
36.3125
35.625
34.9375
34.1875
33.4375
32.875
32.4375
32.25
31.9375
31.625
31.3125
30.9375
30.5
30.0625
29.8125
29.5625
29.3125
29.0625
28.875
28.625
28.3125
28.0625
27.8125
27.5625
27.375
27.125
26.875
26.625
26.375
26.1875
26.0625
25.9375
25.75
25.5
25.375
25.25
25.0
25.0
26.875
36.5625
60.625
93.25
117.1875
125.25
126.1875
124.0625
117.0625
105.9375
94.125
83.75
74.8125
66.8125
59.625
53.75
49.375
46.9375
45.875
45.4375
45.25
45.1875
44.9375
44.5
43.875
43.25
42.5625
41.9375
41.25
40.4375
39.5625
38.6875
37.875
37.125
36.4375
35.875
35.3125
34.75
34.3125
33.875
33.3125
32.75
32.375
32.0625
31.6875
31.375
31.0
30.6875
30.3125
29.9375
29.6875
29.375
29.125
28.875
28.625
28.3125
27.9375
27.5625
27.25
27.0625
26.875
26.625
26.4375
26.25
25.9375
25.625
25.375
25.1875
25.125
25.0
24.8125
24.6875
24.5625
24.375
24.125
23.875
23.75
23.6875
23.5625
23.4375
23.3125
23.0625
22.875
22.75
22.75
22.6875
22.625
22.4375
22.25
22.0625
21.875
21.8125
21.6875
21.6875
21.625
21.625
21.5
21.375
21.25
21.0
20.875
20.9375
21.1875
23.9375
36.8125
67.125
104.4375
125.1875
128.375
125.1875
118.0
106.9375
94.1875
82.3125
72.0625
63.5625
56.6875
51.375
47.4375
44.5
42.75
42.5
42.875
43.0
42.875
42.8125
42.625
42.0
41.3125
40.625
40.0
39.3125
38.625
37.9375
37.25
36.5625
35.8125
35.3125
34.75
34.25
33.9375
33.6875
33.5625
33.4375
33.25
33.0625
32.875
32.5
32.125
31.75
31.5
31.25
31.0
30.625
30.3125
30.0625
29.625
29.1875
28.75
28.5
28.25
28.0
27.75
27.5
27.25
27.0
26.8125
26.5625
26.3125
26.0
25.8125
25.5625
25.375
25.125
25.0625
25.0
24.875
24.8125
24.6875
24.4375
24.0625
23.8125
23.6875
23.625
23.5
23.375
23.25
23.1875
23.0625
22.8125
22.5625
22.5
22.5
22.4375
22.4375
23.0
27.4375
43.1875
73.3125
106.625
124.875
127.6875
124.6875
117.875
107.3125
95.1875
83.5625
73.5625
65.25
58.5
53.0
48.5
45.375
43.8125
43.5
43.6875
43.875
44.0
44.125
43.8125
43.3125
42.625
41.8125
41.0625
40.3125
39.5625
38.8125
37.9375
37.1875
36.5
35.75
35.0
34.375
33.875
33.5
33.125
32.75
32.3125
31.9375
31.5625
31.1875
30.875
30.5625
30.375
30.0625
29.6875
29.375
29.0625
28.875
28.625
28.375
28.125
27.9375
27.6875
27.3125
27.0
26.75
26.5625
26.5
26.375
26.1875
26.0
25.8125
25.5
25.25
25.125
25.0625
24.9375
24.8125
24.6875
24.5625
24.3125
24.0625
23.8125
23.75
23.6875
23.625
23.5625
23.4375
23.25
23.0
22.875
23.0
24.75
33.9375
57.625
91.5625
117.3125
125.4375
125.375
121.6875
112.8125
100.25
87.4375
76.4375
67.5625
60.25
54.375
49.6875
46.0625
43.8125
43.125
43.25
43.3125
43.375
43.5
43.4375
43.0
42.375
41.8125
41.125
40.25
39.375
38.5625
37.8125
37.125
36.4375
35.75
35.125
34.5
33.875
33.3125
32.8125
32.5
32.1875
31.875
31.5625
31.1875
30.75
30.25
29.9375
29.625
29.375
29.25
29.0625
28.8125
28.4375
28.125
27.8125
27.5625
27.375
27.1875
27.0
26.875
26.625
26.3125
26.0
25.75
25.625
25.5
25.375
25.1875
25.0625
24.875
24.5625
24.375
24.25
24.1875
24.0625
23.875
23.75
23.5625
23.4375
24.0625
29.4375
47.6875
79.5625
109.125
121.0
120.9375
117.8125
111.0625
99.8125
87.25
76.5625
68.0625
60.6875
54.4375
49.5
46.0
44.0
43.625
43.9375
44.125
44.25
44.25
44.125
43.75
43.25
42.75
42.25
41.8125
41.1875
40.375
39.5
38.5625
37.75
36.9375
36.25
35.625
35.125
34.6875
34.25
33.75
33.375
32.9375
32.5
32.125
31.75
31.375
30.9375
30.5625
30.3125
30.125
29.8125
29.5
29.1875
28.8125
28.4375
28.0625
27.8125
27.75
27.6875
27.6875
28.9375
36.125
56.375
87.1875
113.5
124.3125
125.25
123.0625
117.5
107.6875
95.9375
84.6875
74.75
66.1875
59.0
53.25
49.0
46.625
45.8125
45.625
45.625
45.625
45.625
45.3125
44.8125
44.1875
43.4375
42.5625
41.6875
40.8125
40.0
39.1875
38.4375
37.75
37.0625
36.375
35.625
35.0625
34.5625
34.0625
33.6875
33.4375
33.0625
32.625
32.125
31.6875
31.375
31.125
30.875
30.625
30.3125
30.0
29.6875
29.375
29.125
28.875
28.6875
28.5625
28.3125
28.0
27.75
27.5
27.25
27.0625
26.9375
26.8125
26.625
26.4375
26.1875
25.9375
25.6875
25.625
25.5625
25.625
26.75
34.5
58.5
96.0
125.25
134.125
133.1875
128.875
119.75
106.25
91.875
80.0
71.0625
63.625
57.4375
52.4375
48.75
46.4375
45.75
45.9375
46.0625
46.125
46.125
45.9375
45.375
44.6875
43.8125
42.875
41.9375
41.125
40.3125
39.625
38.75
38.0
37.25
36.5
35.75
35.0625
34.625
34.25
33.9375
33.6875
33.25
32.8125
32.375
31.9375
31.625
31.375
31.125
30.8125
30.5625
30.25
29.9375
29.6875
29.4375
29.3125
29.125
28.9375
28.75
28.5
28.375
29.8125
39.0625
64.0625
97.8125
121.0625
127.8125
126.3125
120.75
111.375
99.5
87.25
76.5625
67.875
60.6875
54.6875
49.875
47.125
46.5
46.75
46.875
46.9375
46.8125
46.5
45.9375
45.0625
44.3125
43.5625
42.875
42.25
41.5
40.75
39.875
39.0625
38.375
37.875
37.4375
37.125
36.875
36.75
36.4375
35.9375
35.5
35.125
34.6875
34.3125
34.0
33.625
33.25
32.9375
32.5625
32.1875
31.75
31.375
31.125
30.875
30.5625
30.25
29.9375
29.6875
29.5625
29.3125
29.0
28.6875
28.4375
28.25
27.9375
27.75
27.5625
27.5
27.375
27.25
27.125
27.125
29.3125
41.6875
73.5
113.75
136.625
140.0
137.125
131.0625
120.375
106.1875
92.125
80.4375
71.25
63.875
57.875
53.1875
49.875
48.5
48.5
48.75
48.8125
48.875
48.75
48.25
47.375
46.375
45.5
44.625
43.75
42.9375
42.125
41.25
40.375
39.5
38.6875
38.0
37.4375
36.875
36.4375
36.125
35.8125
35.3125
34.75
34.25
33.9375
33.625
33.3125
33.0625
32.75
32.375
32.0625
31.75
31.4375
31.125
30.875
30.75
30.5
30.25
29.875
29.5625
29.375
29.25
29.125
29.4375
33.0
48.1875
79.4375
113.1875
131.6875
135.75
134.5625
129.75
119.375
105.625
92.0625
80.75
71.75
64.25
58.0
53.3125
50.5625
49.75
49.5
49.375
49.25
49.125
48.8125
48.25
47.4375
46.5625
45.625
44.6875
43.875
42.9375
42.0625
41.1875
40.3125
39.5625
38.8125
38.0
37.25
36.6875
36.25
35.875
35.5
35.125
34.6875
34.25
33.8125
33.4375
33.125
32.8125
32.5
32.25
32.0
31.625
31.3125
31.0
30.75
30.5625
30.375
30.125
29.9375
29.6875
29.375
29.125
28.875
28.6875
28.5625
28.4375
28.1875
28.0
27.75
27.5
27.4375
27.3125
27.1875
27.125
27.0
26.8125
26.875
28.75
40.6875
71.9375
110.6875
133.4375
138.625
136.0
127.6875
114.625
99.9375
86.5625
75.6875
67.0
60.125
54.8125
50.9375
48.5
47.9375
48.4375
48.8125
48.8125
48.6875
48.5
48.0
47.1875
46.25
45.5625
44.9375
44.3125
43.5625
42.8125
42.125
41.375
40.625
39.8125
39.1875
38.625
38.0625
37.625
37.125
36.6875
36.25
35.875
35.5
35.0625
34.625
34.1875
33.8125
33.4375
33.0625
32.8125
32.5625
32.3125
31.9375
31.5
31.125
30.75
30.4375
30.125
29.9375
29.8125
29.6875
29.5625
29.375
29.0
28.75
28.5
28.25
28.125
28.0
27.8125
27.6875
27.5
27.3125
27.125
27.5625
32.0
49.625
84.25
120.125
138.6875
142.0
139.1875
131.9375
120.6875
107.625
95.0625
83.9375
74.3125
65.9375
59.1875
54.1875
51.125
50.125
50.0625
50.25
50.25
50.125
49.8125
49.1875
48.4375
47.5625
46.625
45.6875
44.6875
43.6875
42.75
41.875
41.125
40.3125
39.5625
38.9375
38.3125
37.625
37.0
36.5625
36.125
35.8125
35.4375
35.0625
34.6875
34.25
33.75
33.3125
32.9375
32.75
32.5625
32.3125
32.0625
31.75
31.375
31.0
30.625
30.375
30.25
30.125
29.9375
29.6875
29.5
29.1875
28.9375
28.6875
28.5
28.4375
28.375
29.1875
35.3125
56.1875
92.0
124.0625
137.25
138.75
136.4375
129.5625
117.3125
102.75
89.625
78.9375
70.125
62.625
56.6875
52.5
50.25
49.75
49.875
50.0625
50.125
50.0
49.625
48.9375
48.0
46.9375
45.9375
45.0625
44.1875
43.25
42.3125
41.4375
40.5625
39.6875
38.875
38.1875
37.5625
37.125
36.6875
36.25
35.875
35.4375
35.0
34.5625
34.125
33.8125
33.5
33.25
32.9375
32.6875
32.375
32.0625
31.75
31.5
31.25
30.9375
30.75
30.625
30.5
30.125
29.6875
29.5
29.375
29.1875
29.0
28.75
28.5625
28.4375
28.4375
29.125
34.5625
54.5
89.6875
120.5625
133.4375
135.8125
133.125
125.0625
112.8125
98.875
85.9375
75.1875
66.5
59.6875
54.6875
51.625
50.625
51.0
51.375
51.375
51.0625
50.6875
50.1875
49.375
48.4375
47.5
46.75
45.875
44.8125
43.6875
42.5625
41.5625
40.75
39.9375
39.25
38.6875
38.0
37.375
36.9375
36.5
36.0
35.625
35.25
34.875
34.5
34.0625
33.75
33.5
33.25
32.9375
32.6875
32.3125
32.0
31.6875
31.3125
30.875
30.625
30.4375
30.3125
30.125
29.8125
29.5
29.25
29.0
28.8125
28.6875
28.5625
28.6875
30.875
42.5625
72.0
110.125
135.375
143.1875
143.25
139.125
130.5
118.25
105.3125
93.1875
82.625
73.5625
65.9375
59.625
55.0625
52.875
52.375
52.3125
52.25
52.125
51.75
51.25
50.4375
49.5
48.5
47.4375
46.4375
45.4375
44.4375
43.4375
42.5
41.5
40.6875
39.9375
39.1875
38.625
38.125
37.6875
37.25
36.8125
36.375
35.8125
35.3125
34.9375
34.6875
34.4375
34.125
33.8125
33.5
33.125
32.75
32.375
32.0625
31.8125
31.5625
31.375
31.0
30.625
30.25
30.0
29.6875
29.4375
29.25
29.0625
29.25
32.625
48.375
82.8125
119.75
138.9375
143.125
142.0625
136.5625
125.4375
111.1875
96.875
84.6875
75.0
66.9375
60.0625
54.875
51.875
51.1875
51.375
51.5625
51.625
51.5625
51.3125
50.5
49.5625
48.5625
47.5
46.5
45.5625
44.5625
43.5625
42.5625
41.625
40.625
39.8125
39.125
38.5625
38.0625
37.5625
37.125
36.75
36.375
35.875
35.375
34.9375
34.6875
34.375
34.125
33.8125
33.5
33.1875
32.9375
32.625
32.375
32.0625
31.8125
31.5625
31.375
31.125
30.9375
30.625
30.375
30.125
30.125
30.1875
31.3125
39.25
63.8125
100.8125
129.25
140.0625
140.6875
135.875
126.0
112.3125
97.4375
84.1875
73.6875
65.625
59.25
54.1875
51.25
50.5
50.875
51.25
51.3125
51.3125
51.125
50.75
50.0
48.9375
47.9375
46.8125
45.75
44.6875
43.6875
42.6875
41.6875
40.8125
40.0625
39.25
38.625
38.125
37.6875
37.25
36.875
36.4375
36.0
35.5625
35.125
34.75
34.375
34.0625
33.75
33.5
33.1875
32.8125
32.5
32.1875
31.875
31.625
31.4375
31.1875
30.9375
30.625
30.375
30.1875
30.0625
30.5
35.3125
54.375
90.625
125.9375
143.8125
148.6875
147.25
140.5625
129.75
116.4375
102.6875
90.625
80.6875
71.9375
64.4375
58.5
54.875
53.625
53.5
53.5625
53.375
53.0
52.4375
51.75
50.875
49.8125
48.75
47.6875
46.6875
45.6875
44.8125
43.875
42.9375
42.0625
41.1875
40.5
39.75
39.0625
38.4375
38.0
37.625
37.25
36.875
36.4375
35.9375
35.4375
35.0625
34.75
34.4375
34.125
33.8125
33.5
33.125
32.6875
32.3125
32.0625
31.75
31.4375
31.1875
30.9375
30.625
30.5
32.6875
45.375
77.25
115.8125
138.8125
144.75
143.625
138.5
128.1875
114.0625
99.25
86.5625
76.5625
68.4375
61.375
55.9375
53.0
52.3125
52.5625
52.6875
52.625
52.4375
51.9375
51.1875
50.1875
49.0625
47.9375
46.9375
45.9375
44.9375
43.875
42.875
41.9375
41.0625
40.125
39.375
38.8125
38.375
37.875
37.4375
36.9375
36.375
35.9375
35.6875
35.375
35.0625
34.75
34.375
34.0
33.625
33.3125
33.0
32.6875
32.4375
32.25
31.9375
31.6875
31.4375
31.125
30.875
30.625
30.375
30.625
33.625
48.6875
82.5625
119.25
138.5
142.75
141.125
134.875
124.0
109.5625
94.625
82.0625
72.5625
65.0
58.875
54.375
52.25
52.0
52.1875
52.25
52.1875
52.1875
51.9375
51.1875
50.0625
49.0
47.9375
46.8125
45.75
44.6875
43.75
42.8125
41.875
41.0625
40.1875
39.375
38.625
38.0625
37.5625
37.125
36.6875
36.375
36.0
35.5625
35.125
34.6875
34.375
34.0625
33.8125
33.5
33.25
32.875
32.375
31.9375
31.6875
31.4375
31.1875
31.0625
30.875
30.625
30.375
30.125
29.875
30.4375
36.4375
58.9375
98.75
133.6875
148.25
150.125
147.0625
139.375
127.25
113.25
100.3125
89.0
78.875
70.0625
62.6875
57.3125
54.5
53.75
53.6875
53.625
53.375
52.9375
52.375
51.625
50.625
49.5625
48.5
47.4375
46.3125
45.1875
44.125
43.125
42.25
41.4375
40.6875
40.0
39.3125
38.6875
38.125
37.6875
37.25
36.875
36.5
36.125
35.625
35.125
34.625
34.25
33.875
33.625
33.5
33.1875
32.875
32.4375
32.0625
31.625
31.25
31.0
30.8125
30.625
30.375
30.5625
34.5
52.375
88.8125
125.375
143.0625
146.3125
143.5625
136.375
124.9375
110.75
96.375
84.375
74.875
66.8125
59.875
55.0625
52.8125
52.375
52.5
52.5625
52.4375
52.1875
51.5625
50.75
49.625
48.5
47.375
46.375
45.3125
44.3125
43.375
42.5
41.4375
40.4375
39.5625
38.875
38.375
37.9375
37.5
37.0625
36.625
36.125
35.625
35.1875
34.8125
34.4375
34.0625
33.8125
33.5
33.125
32.6875
32.4375
32.125
31.8125
31.5625
31.375
31.125
30.875
30.625
30.4375
30.25
30.0625
30.25
34.0
51.1875
87.0
123.3125
140.5
143.1875
140.75
133.625
121.25
106.1875
91.8125
80.1875
70.8125
63.0625
56.9375
52.875
51.375
51.375
51.625
51.5
51.4375
51.4375
51.125
50.4375
49.5625
48.5
47.375
46.1875
45.0625
43.9375
42.875
41.9375
41.125
40.3125
39.5
38.6875
37.9375
37.375
36.9375
36.5625
36.1875
35.8125
35.4375
35.0
34.5625
34.1875
33.875
33.5
33.125
32.875
32.5
32.125
31.8125
31.5625
31.25
31.0
30.75
30.4375
30.1875
30.0
29.875
30.1875
34.0625
51.5
87.875
125.3125
143.625
146.8125
144.75
138.3125
127.125
113.1875
99.4375
87.6875
77.625
68.75
61.3125
55.8125
52.875
52.125
52.1875
52.3125
52.1875
51.8125
51.25
50.4375
49.5625
48.625
47.6875
46.6875
45.625
44.625
43.5625
42.5
41.4375
40.5625
39.9375
39.375
38.75
38.0625
37.5625
37.0
36.4375
35.8125
35.3125
35.0625
34.8125
34.5
34.125
33.6875
33.375
33.0
32.6875
32.375
32.125
31.875
31.5625
31.1875
30.8125
30.4375
30.1875
29.875
29.6875
29.5
29.375
31.0625
42.0625
72.3125
112.375
137.8125
144.5
143.625
138.0
126.75
112.0625
97.1875
84.5625
74.375
66.0
59.0
53.6875
51.0
50.375
50.625
50.8125
50.9375
50.8125
50.4375
49.75
48.8125
47.75
46.625
45.4375
44.375
43.375
42.4375
41.5625
40.6875
39.75
38.8125
38.0
37.375
36.875
36.4375
36.0625
35.6875
35.3125
34.875
34.4375
34.0625
33.6875
33.3125
32.875
32.625
32.3125
31.9375
31.5625
31.3125
31.125
30.875
30.6875
30.4375
30.1875
30.0
29.75
29.5
29.1875
29.0
28.875
28.6875
28.5625
28.5625
29.9375
39.375
67.375
106.8125
133.5625
140.75
138.625
130.9375
118.3125
103.125
89.0
77.6875
68.75
61.4375
55.5625
51.1875
49.0625
48.875
49.3125
49.4375
49.5
49.4375
49.1875
48.6875
47.8125
46.75
45.75
44.75
43.6875
42.6875
41.75
40.8125
39.8125
38.9375
38.1875
37.5
36.875
36.375
35.9375
35.5
35.125
34.625
34.125
33.75
33.375
33.0625
32.75
32.5
32.1875
31.875
31.4375
31.125
30.8125
30.5
30.25
30.0
29.75
29.5625
29.3125
29.0625
29.0
30.75
41.5
70.1875
109.4375
136.4375
143.4375
141.9375
137.625
128.9375
116.0625
102.25
89.625
78.5625
69.0625
61.25
55.3125
51.8125
50.625
50.5
50.625
50.5625
50.3125
49.9375
49.3125
48.5
47.625
46.625
45.75
44.6875
43.625
42.625
41.625
40.625
39.75
38.9375
38.25
37.625
37.0
36.375
35.875
35.4375
35.0
34.625
34.25
33.875
33.4375
33.0
32.625
32.25
31.875
31.625
31.5
31.1875
30.875
30.5
30.25
29.9375
29.625
29.375
29.1875
28.9375
28.75
28.5
28.375
29.5625
38.5
65.6875
105.625
133.75
141.5625
140.375
135.0
124.0625
109.1875
94.3125
81.875
71.9375
63.625
56.6875
51.5
48.625
48.0
48.125
48.3125
48.5
48.5625
48.375
47.8125
46.9375
46.0
45.0
44.0
43.0
42.0625
41.0625
40.125
39.1875
38.3125
37.5
36.875
36.375
35.875
35.375
34.9375
34.375
33.875
33.5
33.1875
32.875
32.5625
32.25
31.875
31.4375
31.0
30.6875
30.4375
30.25
30.0625
29.8125
29.5625
29.25
28.875
28.625
28.375
28.1875
28.0
27.8125
27.6875
27.5
27.3125
27.0625
26.875
26.6875
26.5
26.5
27.8125
36.8125
63.9375
103.0
130.1875
137.8125
135.875
128.625
115.8125
100.5
86.8125
75.8125
66.75
59.0625
53.0625
49.0625
47.1875
47.1875
47.6875
48.0
48.125
48.125
48.0625
47.6875
47.0
46.0625
45.1875
44.3125
43.375
42.375
41.4375
40.4375
39.4375
38.5625
37.8125
37.0625
36.4375
35.875
35.375
35.0
34.625
34.1875
33.6875
33.1875
32.6875
32.3125
32.0625
31.6875
31.375
31.0625
30.75
30.4375
30.125
29.8125
29.5625
29.375
29.125
28.8125
28.5625
28.3125
28.0
27.75
27.5625
27.375
27.1875
27.0
26.75
26.5625
26.3125
26.5625
30.25
46.5
80.125
115.4375
132.75
136.25
135.625
129.0
116.125
101.5625
88.875
78.5625
69.5625
61.8125
55.5
51.1875
49.0
48.3125
48.125
48.0
47.875
47.6875
47.3125
46.625
45.8125
44.9375
44.0625
43.125
42.1875
41.25
40.375
39.4375
38.5625
37.8125
37.0625
36.5
36.0
35.4375
34.875
34.375
33.875
33.4375
33.125
32.875
32.5625
32.1875
31.8125
31.3125
31.0
30.6875
30.375
30.125
29.875
29.625
29.3125
28.9375
28.625
28.375
28.1875
28.0
27.8125
27.5625
27.375
27.125
26.8125
26.5625
26.4375
26.3125
26.3125
27.5625
36.125
61.125
98.625
126.75
134.5
133.1875
128.875
119.125
104.875
90.5
79.0
69.9375
62.25
55.8125
51.0
48.5
47.5625
47.3125
47.125
47.0
46.875
46.5625
45.9375
45.125
44.1875
43.1875
42.3125
41.4375
40.625
39.8125
38.9375
38.1875
37.375
36.625
35.875
35.125
34.5625
34.0625
33.625
33.25
32.9375
32.5625
32.125
31.625
31.1875
30.875
30.5
30.1875
29.9375
29.6875
29.4375
29.125
28.875
28.5625
28.3125
28.0625
27.875
27.625
27.375
27.0625
26.875
26.6875
26.5
26.3125
26.125
25.875
25.6875
25.8125
28.5
42.0
72.8125
107.5625
126.25
129.5625
126.6875
119.0
106.3125
92.0
79.5
69.6875
61.6875
54.9375
49.625
46.25
45.1875
45.375
45.625
45.75
45.75
45.625
45.125
44.375
43.5625
42.8125
42.0625
41.375
40.6875
40.0
39.1875
38.4375
37.6875
37.0
36.5
36.125
35.8125
35.4375
35.0625
34.6875
34.1875
33.625
33.125
32.625
32.3125
32.0
31.6875
31.375
30.9375
30.5625
30.1875
29.875
29.5625
29.25
28.9375
28.625
28.3125
28.0625
27.75
27.5625
27.375
27.1875
27.0
26.8125
26.5625
26.5625
28.3125
38.8125
65.6875
101.125
125.0
132.125
131.75
126.6875
115.8125
101.8125
88.5
77.1875
67.9375
60.1875
53.9375
49.3125
46.875
46.0
45.9375
45.9375
46.125
46.1875
45.9375
45.4375
44.6875
43.8125
43.0
42.125
41.25
40.4375
39.625
38.75
37.875
37.0625
36.3125
