0
""
""
""
""
""
""
""
""
""
""
""
""
""
""
""
""
90.625
89.875
89.25
88.5625
88.125
87.8125
87.375
86.75
86.3125
85.9375
85.5
84.875
83.4375
81.375
79.3125
77.5625
76.125
75.375
75.25
75.25
75.375
75.5
75.4375
75.125
74.75
74.25
73.6875
73.1875
72.6875
72.1875
71.75
71.375
71.0625
70.6875
70.3125
70.0625
69.8125
69.5625
69.375
69.0625
68.8125
68.625
68.25
67.9375
67.4375
67.1875
67.0625
66.625
66.375
66.9375
71.75
83.25
97.375
111.3125
123.3125
130.9375
135.0
137.0
137.375
136.625
134.8125
131.8125
127.25
121.375
114.6875
108.375
103.5
100.1875
98.3125
97.5
97.0
96.75
96.5
96.3125
96.0625
95.75
95.4375
95.1875
94.75
94.125
93.5
92.625
91.6875
90.625
89.5
88.5625
87.75
86.75
85.6875
84.75
84.3125
84.875
87.625
93.3125
100.875
108.5625
115.375
120.5
123.6875
125.1875
125.3125
124.125
121.75
117.875
112.5
106.625
101.625
97.6875
94.8125
93.25
92.5625
92.3125
92.0
91.75
91.4375
91.0625
90.625
90.125
89.6875
89.25
88.6875
88.0625
87.375
86.4375
85.625
85.0
84.1875
83.25
82.5
82.4375
84.3125
89.5
97.125
105.6875
113.8125
120.125
124.1875
126.1875
126.625
125.625
123.5
120.25
115.4375
109.4375
103.8125
99.125
95.625
93.625
92.6875
92.1875
91.875
91.625
91.5
91.125
90.8125
90.5625
90.1875
89.8125
89.5
88.75
88.0625
87.1875
86.25
85.4375
84.8125
83.9375
83.0625
82.3125
82.125
83.0
86.1875
92.3125
99.9375
107.75
114.5625
119.3125
122.0625
122.9375
122.3125
120.375
117.3125
112.875
107.3125
101.8125
97.4375
94.1875
92.25
91.25
90.625
90.4375
90.375
90.125
89.8125
89.625
89.3125
88.9375
88.625
88.125
87.5
86.875
86.0625
85.25
84.5
83.875
83.125
82.25
81.6875
81.75
83.3125
87.875
95.0625
103.5625
111.625
118.125
122.5625
124.75
125.25
124.3125
122.125
118.8125
114.375
108.625
103.0
98.6875
95.6875
93.8125
92.5625
92.0625
92.0625
92.0625
91.75
91.25
90.875
90.75
90.5
90.1875
89.5625
88.75
88.25
87.5
86.5625
85.75
85.125
84.4375
83.5625
82.9375
82.9375
84.25
88.4375
95.4375
103.8125
112.125
118.8125
123.375
125.9375
126.8125
126.125
124.25
121.0625
116.4375
110.625
104.75
100.0625
96.6875
94.625
93.5
93.0
92.8125
92.6875
92.5
92.3125
91.9375
91.75
91.5
91.0625
90.75
90.0625
89.5
88.5625
87.625
86.9375
86.25
85.4375
84.5625
83.8125
83.9375
85.5625
90.375
97.9375
106.75
115.25
121.8125
126.1875
128.6875
129.5
128.75
126.9375
123.625
119.3125
113.5625
106.9375
102.3125
98.5625
96.375
95.25
94.75
95.0625
94.6875
94.5
94.5
94.25
94.0625
93.6875
93.375
93.125
92.5625
91.6875
90.5
89.625
88.875
87.8125
86.875
86.0
85.5
86.25
89.0625
94.9375
103.5
113.1875
121.1875
126.5625
130.625
132.6875
132.4375
131.1875
129.0625
125.4375
120.6875
114.4375
107.3125
103.1875
99.9375
98.125
97.5
96.6875
97.0625
96.75
96.1875
96.0625
95.5625
95.625
95.125
94.4375
94.1875
93.375
92.6875
91.5
90.4375
89.8125
88.6875
87.6875
86.6875
86.25
87.0625
89.8125
95.6875
103.3125
111.6875
119.125
124.375
128.0
129.75
130.125
129.3125
126.75
122.625
116.8125
110.4375
104.4375
100.0
97.75
96.5625
96.0
95.625
95.75
95.875
94.75
94.0
94.125
94.3125
93.9375
93.5625
93.4375
92.9375
92.0
91.0
90.25
88.9375
87.75
86.5
84.9375
84.4375
85.1875
87.5625
92.9375
100.5625
109.375
117.3125
123.375
127.75
129.1875
129.0625
127.5625
124.1875
119.75
114.0
107.4375
102.0
98.4375
96.75
96.0
95.75
95.5625
95.25
95.0625
94.375
93.5
92.9375
92.4375
92.1875
91.8125
91.5
91.0
90.375
89.6875
88.9375
88.5
87.8125
86.75
85.9375
85.5
86.0
89.0
95.0625
103.0
111.5625
119.0625
124.6875
128.25
130.0625
130.25
128.8125
126.3125
122.3125
116.625
110.125
104.625
100.4375
97.4375
95.9375
95.25
94.875
94.8125
94.875
94.9375
94.875
94.6875
94.375
93.9375
93.5625
93.0625
92.0625
91.125
90.25
89.3125
88.5625
87.875
86.9375
86.0625
86.1875
86.8125
89.625
95.625
103.6875
112.3125
119.8125
125.625
129.5
131.375
131.5
130.125
127.4375
123.5625
117.5
110.6875
105.875
101.625
98.1875
97.0625
96.6875
96.4375
96.125
95.875
95.6875
95.1875
95.1875
94.75
94.0625
93.875
93.375
92.625
91.9375
91.1875
90.3125
89.4375
88.5
87.5
86.6875
86.625
87.375
90.75
97.375
105.625
114.375
122.75
127.6875
131.125
133.0625
132.5
130.875
128.3125
125.0625
119.75
112.375
109.25
104.0
99.125
98.5625
94.5625
97.375
97.0625
94.5625
96.3125
96.4375
97.5
97.0
95.375
95.25
95.875
93.4375
93.25
95.25
89.75
90.75
90.0
87.3125
88.8125
86.3125
89.1875
95.5625
102.375
111.875
120.4375
127.8125
132.3125
134.3125
135.75
135.375
132.6875
129.8125
125.125
118.4375
112.9375
107.125
102.875
100.75
98.9375
98.5625
98.6875
98.875
98.625
98.4375
98.3125
97.9375
97.4375
97.1875
96.6875
95.6875
94.9375
93.8125
92.625
91.6875
90.875
89.5625
88.125
87.5
87.5
89.125
94.0
101.375
110.0
118.375
125.0
129.625
132.1875
132.875
132.0
129.6875
125.9375
120.5
114.0
108.0
103.3125
100.125
98.25
97.375
97.0
96.75
96.625
96.5
96.3125
96.0625
95.75
95.3125
94.875
94.25
93.5
92.625
91.625
90.5
89.6875
89.0625
88.25
87.3125
86.8125
86.9375
88.4375
92.75
99.625
107.875
115.875
122.4375
127.0
129.6875
130.5
129.625
127.375
123.6875
118.4375
112.0625
106.0625
101.625
98.625
96.8125
96.125
95.8125
95.5625
95.5
95.375
95.25
95.0
94.5
94.0
93.6875
93.25
92.5
91.625
90.625
89.625
88.875
88.125
87.25
86.375
85.9375
86.0625
88.125
93.25
100.75
109.375
117.5625
124.0
128.3125
130.75
131.1875
129.9375
127.625
123.9375
118.4375
112.0625
106.25
101.5625
98.5625
96.8125
95.9375
95.75
95.5625
95.3125
95.125
95.0625
94.75
94.4375
94.25
94.0
93.4375
92.5625
91.6875
90.625
89.5
88.75
88.1875
87.1875
86.25
85.9375
86.375
88.375
93.6875
101.5
110.125
118.5625
125.0
129.25
131.625
131.875
130.9375
128.5
124.6875
119.8125
113.375
107.4375
102.625
99.1875
97.4375
96.5625
96.0
95.9375
96.0625
96.0
95.625
95.3125
95.0
94.6875
94.375
93.8125
93.25
92.5
91.4375
90.3125
89.375
88.4375
87.375
86.375
85.8125
86.25
88.8125
94.625
102.75
111.875
120.1875
126.3125
130.5625
132.75
133.125
132.3125
129.9375
126.0625
120.625
114.125
108.0625
103.3125
99.9375
98.0625
97.25
96.9375
97.0625
96.5
96.6875
97.9375
96.375
95.875
96.125
94.9375
94.9375
93.9375
93.125
92.4375
91.1875
90.25
88.75
87.25
87.0
87.125
88.3125
92.0625
99.0625
108.5
117.8125
125.0
130.5625
133.875
134.3125
133.75
132.375
129.9375
125.4375
119.875
113.875
108.0
103.625
100.75
99.25
98.5
98.125
98.0
97.8125
97.4375
97.0
96.6875
96.5
96.1875
95.8125
95.3125
94.375
93.4375
92.1875
91.0625
90.1875
89.25
88.0625
87.125
86.8125
87.9375
91.9375
98.75
107.1875
115.75
122.9375
128.0
131.0
132.1875
131.625
129.6875
126.25
121.25
114.9375
108.6875
103.5625
99.8125
97.625
96.625
96.1875
96.0
95.9375
95.875
95.6875
95.375
95.0625
94.6875
94.375
93.875
93.0625
92.1875
91.0625
89.9375
89.125
88.375
87.5
86.5625
85.9375
85.9375
86.5
90.0
96.6875
105.125
112.9375
119.4375
124.5
127.6875
129.375
129.1875
126.9375
123.625
119.4375
113.25
106.3125
101.1875
97.9375
95.9375
95.0625
94.625
94.6875
94.875
94.625
94.0
93.4375
93.25
93.125
92.75
92.25
91.5
90.75
89.75
88.6875
87.9375
87.375
86.625
85.625
85.0
85.0
86.1875
90.4375
97.5
106.0
114.5625
121.625
126.5
129.375
130.375
129.5625
127.4375
124.0
119.0625
112.875
106.75
101.9375
98.5
96.4375
95.5
95.125
94.9375
94.8125
94.6875
94.5
94.125
93.8125
93.5
93.125
92.625
92.0
91.1875
90.125
89.125
88.3125
87.5625
86.6875
85.6875
85.125
85.0625
86.4375
90.75
97.8125
106.375
114.875
121.8125
126.6875
129.5
130.3125
129.5625
127.4375
124.0625
119.3125
113.1875
107.0625
102.25
98.75
96.625
95.625
95.1875
95.0
94.875
94.75
94.5
94.1875
93.875
93.5
93.125
92.625
92.0
91.125
90.1875
89.25
88.375
87.75
86.9375
86.0625
85.4375
85.375
87.0
91.8125
99.375
108.1875
116.75
123.5625
128.125
130.9375
131.75
130.875
129.0625
125.75
120.875
114.6875
108.4375
103.3125
99.625
97.4375
96.4375
96.0625
95.9375
95.875
95.75
95.625
95.25
95.0
94.6875
94.3125
93.75
93.125
92.25
91.1875
90.125
89.3125
88.5625
87.5625
86.5
85.8125
86.375
89.3125
95.625
104.125
113.25
121.3125
127.3125
131.4375
133.5
133.375
132.125
129.875
126.125
120.8125
114.4375
108.4375
103.625
100.25
98.375
97.5
97.125
96.9375
96.8125
96.6875
96.5
96.125
95.8125
95.375
94.8125
94.125
93.4375
92.4375
91.25
90.25
89.5
88.5625
87.5
86.5625
86.125
86.6875
89.625
95.625
103.625
112.1875
119.8125
125.375
128.875
130.5625
130.5
128.9375
126.0
121.625
115.625
109.1875
103.6875
99.5625
97.0
95.8125
95.3125
95.1875
95.1875
95.0625
94.875
94.5625
94.1875
93.8125
93.375
92.8125
92.25
91.4375
90.5625
89.5625
88.5625
87.8125
87.0
86.0625
85.125
84.75
85.1875
87.6875
93.1875
100.875
109.25
116.8125
122.4375
126.0
127.5625
127.4375
125.9375
123.0625
118.875
113.125
106.875
101.5625
97.75
95.3125
94.125
93.6875
93.5
93.375
93.25
93.0625
92.75
92.5
92.1875
91.8125
91.4375
90.8125
90.1875
89.25
88.1875
87.3125
86.5625
85.75
84.75
84.0
83.75
84.4375
87.6875
94.0625
102.4375
111.125
118.375
123.75
127.0
128.1875
127.75
126.0
122.875
118.6875
113.1875
106.8125
101.5
97.8125
95.375
94.125
93.8125
93.6875
93.625
93.5
93.3125
93.0
92.75
92.375
92.0625
91.5625
90.9375
90.1875
89.3125
88.25
87.25
86.5
85.8125
84.9375
84.25
84.0
84.875
88.25
94.8125
103.1875
111.8125
119.1875
124.5
127.6875
129.0
128.625
126.9375
124.0625
119.8125
114.0625
107.8125
102.5
98.625
96.0625
94.6875
94.125
93.9375
93.8125
93.6875
93.5625
93.25
92.9375
92.625
92.3125
91.875
91.3125
90.5625
89.6875
88.6875
87.875
87.125
86.3125
85.4375
84.625
84.375
85.3125
89.0
95.8125
104.4375
113.1875
120.5
125.625
128.6875
129.75
129.4375
127.6875
124.75
120.5
114.8125
108.5625
103.125
99.125
96.5625
95.375
95.0
94.8125
94.8125
94.875
94.3125
94.25
94.3125
93.3125
93.1875
93.1875
92.0
91.375
90.625
89.1875
88.4375
87.9375
86.9375
85.75
84.9375
85.125
87.125
92.375
100.5
109.6875
118.25
124.875
129.25
131.75
132.375
131.25
129.0625
125.875
121.125
115.125
109.0625
103.9375
100.1875
97.9375
96.8125
96.3125
96.125
96.0
95.9375
95.6875
95.4375
95.125
94.75
94.25
93.625
92.875
92.0
90.9375
89.9375
89.0625
88.1875
87.1875
86.125
85.4375
85.625
87.625
92.8125
100.4375
109.0625
117.0625
123.1875
127.1875
129.1875
129.4375
128.25
125.875
122.125
116.8125
110.625
104.875
100.5
97.375
95.6875
94.9375
94.5625
94.3125
94.25
94.125
93.875
93.5625
93.25
92.875
92.375
91.8125
91.125
90.1875
89.125
88.1875
87.375
86.625
85.75
84.8125
84.3125
84.5
86.25
91.0
98.25
106.625
114.5625
120.6875
124.75
126.8125
127.0
125.75
123.3125
119.5625
114.375
108.3125
102.8125
98.75
95.875
94.375
93.625
93.3125
93.125
92.9375
92.75
92.5
92.125
91.8125
91.4375
91.0
90.5
89.875
89.0625
88.0625
87.1875
86.5
85.8125
84.9375
84.0625
83.625
83.8125
86.0625
91.375
99.125
107.6875
115.5
121.5625
125.4375
127.25
127.375
126.0
123.375
119.5625
114.25
108.125
102.6875
98.625
95.8125
94.3125
93.625
93.4375
93.1875
93.0625
92.875
92.5625
92.25
91.9375
91.625
91.1875
90.6875
90.0
89.125
88.25
87.25
86.5
85.8125
84.875
84.0
83.5625
83.875
86.1875
91.75
99.625
108.3125
116.25
122.1875
126.0625
127.875
128.0
126.6875
124.1875
120.4375
115.1875
109.0625
103.5625
99.375
96.5
94.875
94.1875
93.8125
93.5625
93.4375
93.25
93.0625
92.75
92.4375
92.0625
91.6875
91.125
90.375
89.5
88.5
87.5
86.8125
86.125
85.3125
84.4375
84.0625
84.5625
87.1875
93.125
101.4375
110.3125
118.1875
123.9375
127.5625
129.25
129.25
127.875
125.375
121.625
116.4375
110.1875
104.4375
100.125
97.1875
95.625
94.875
94.6875
94.625
94.5625
94.4375
94.1875
93.875
93.5625
93.1875
92.75
92.25
91.5625
90.6875
89.625
88.6875
87.9375
87.125
86.0625
85.0
84.6875
85.75
89.75
96.875
105.75
114.75
122.1875
127.3125
130.25
131.5625
131.25
129.375
126.4375
122.25
116.8125
110.6875
105.4375
101.125
97.6875
97.0625
96.4375
95.0625
95.4375
95.6875
95.125
95.6875
95.25
94.6875
94.3125
93.6875
93.0625
91.9375
90.9375
89.9375
88.875
88.0625
87.125
86.1875
85.25
85.0625
86.5625
90.9375
98.0625
106.5625
115.0625
121.8125
126.1875
128.8125
129.5625
128.8125
126.9375
123.625
118.875
112.75
106.625
101.8125
98.3125
96.25
95.4375
95.0625
94.875
94.5625
94.3125
94.0625
93.6875
93.375
92.9375
92.5
92.0625
91.4375
90.6875
89.6875
88.625
87.625
86.75
85.9375
85.125
84.125
84.4375
84.875
89.125
95.9375
103.3125
111.875
118.625
123.3125
125.75
126.75
126.4375
124.125
120.875
115.875
109.875
104.1875
99.375
96.3125
94.5
93.625
93.3125
93.1875
93.0
92.75
92.4375
92.0625
91.6875
91.4375
91.125
90.6875
90.125
89.3125
88.375
87.3125
86.375
85.625
84.8125
84.0
83.3125
83.375
84.8125
89.0625
96.125
104.6875
113.0625
119.6875
124.1875
126.5625
127.1875
126.1875
123.9375
120.5625
115.8125
109.9375
104.125
99.5625
96.4375
94.625
93.6875
93.3125
93.0625
92.875
92.6875
92.375
92.0
91.75
91.4375
91.125
90.6875
90.125
89.4375
88.5
87.4375
86.625
85.9375
85.125
84.125
83.4375
83.5
85.0625
89.6875
97.0625
105.6875
114.125
120.75
125.125
127.5
128.0625
127.125
124.9375
121.5
116.75
110.875
105.0625
100.4375
97.1875
95.25
94.3125
93.9375
93.6875
93.5
93.375
93.125
92.8125
92.4375
92.0625
91.6875
91.125
90.5
89.6875
88.6875
87.6875
86.8125
86.1875
85.375
84.625
84.125
84.25
85.9375
90.8125
98.4375
107.3125
115.625
122.125
126.375
128.625
129.0
128.0625
126.0
122.75
118.1875
112.375
106.4375
101.625
98.125
96.0
95.0625
94.6875
94.625
94.5625
94.375
94.1875
93.9375
93.5625
93.1875
92.625
92.0
91.4375
90.625
89.6875
88.8125
88.0
87.25
86.3125
85.25
84.625
85.0625
87.875
94.125
102.625
111.6875
119.8125
125.8125
129.4375
131.125
131.25
130.0625
127.5625
123.5625
118.3125
112.25
106.5625
101.75
98.625
97.0
96.1875
95.875
95.6875
95.5625
95.4375
95.0625
94.625
94.25
93.8125
93.3125
92.75
92.0625
91.125
90.0
89.0625
88.3125
87.4375
86.375
85.375
84.9375
85.625
88.75
95.0625
103.3125
111.9375
119.375
124.6875
128.0
129.3125
128.875
127.3125
124.5625
120.375
114.8125
108.6875
103.4375
99.4375
96.8125
95.4375
94.875
94.5
94.25
94.125
93.875
93.625
93.3125
93.0
92.5625
92.125
91.5
90.875
89.875
88.6875
87.75
87.0
86.1875
85.1875
84.375
83.9375
84.375
86.8125
92.3125
100.0
108.4375
115.9375
121.4375
124.875
126.25
126.0
124.375
121.5625
117.4375
112.0
106.125
101.125
97.4375
94.875
93.8125
93.25
92.3125
92.9375
92.875
92.125
91.8125
91.3125
91.3125
91.1875
90.6875
90.125
89.0625
88.25
87.375
86.375
85.8125
85.3125
84.4375
83.4375
83.25
83.25
86.4375
93.0625
101.125
109.375
116.75
122.5
125.5625
126.625
126.375
124.5
121.6875
117.5625
112.0
106.0625
101.0
97.3125
94.9375
93.6875
93.0625
92.8125
92.6875
92.5625
92.3125
91.75
91.6875
91.4375
90.875
90.9375
90.25
89.375
88.625
87.5625
86.625
85.875
85.1875
84.3125
83.4375
83.125
84.0
87.1875
93.375
101.5625
110.375
117.8125
123.0625
126.25
127.5
127.125
125.375
122.5625
118.4375
113.0
107.0
101.9375
98.0625
95.625
94.375
93.6875
93.4375
93.25
93.125
92.8125
92.5625
92.375
92.0
91.5625
91.0
90.4375
89.9375
88.8125
87.75
87.0
86.125
85.4375
84.6875
83.875
83.625
84.5
87.875
94.4375
103.0
111.5625
118.375
124.375
127.6875
127.9375
128.0
126.6875
123.6875
119.875
114.5625
108.3125
103.0
99.3125
96.6875
95.0625
94.5
94.4375
94.1875
93.8125
94.125
93.75
93.375
93.25
92.9375
92.3125
91.625
91.0
90.0
88.8125
87.9375
87.3125
86.5625
85.5
84.5625
84.4375
86.0
90.625
98.3125
107.4375
116.1875
123.125
127.8125
130.3125
131.0
130.1875
128.5
125.5625
120.9375
115.1875
109.0625
103.75
99.75
97.25
96.1875
95.625
95.5625
95.625
95.5
95.3125
95.1875
94.75
94.1875
93.6875
93.0
92.25
91.5
90.3125
89.3125
88.375
87.4375
86.8125
85.625
84.8125
85.125
87.0
91.6875
99.25
107.9375
116.0
122.3125
126.5
128.6875
129.125
128.0625
125.6875
122.0625
117.0
110.9375
105.1875
100.6875
97.5625
95.6875
94.8125
94.375
94.0625
93.9375
93.75
93.5
93.1875
92.9375
92.6875
92.25
91.75
91.125
90.125
89.0
87.9375
87.125
86.3125
85.375
84.5
83.875
83.9375
85.3125
89.5625
96.4375
104.625
112.625
119.0
123.25
125.5
125.9375
124.75
122.4375
119.0
114.0625
108.1875
102.8125
98.625
95.75
94.0625
93.3125
93.0
92.75
92.5625
92.375
92.0
91.625
91.25
90.875
90.5
90.0625
89.4375
88.625
87.6875
86.75
86.0625
85.4375
84.625
83.75
83.0625
83.1875
84.875
89.6875
97.1875
105.75
113.875
120.1875
124.375
126.375
126.625
125.375
123.0
119.375
114.3125
108.3125
102.75
98.4375
95.5625
93.9375
93.1875
92.875
92.75
92.625
92.5
92.25
91.9375
91.625
91.25
90.875
90.4375
89.75
88.9375
87.875
86.8125
86.0625
85.4375
84.5625
83.6875
83.125
83.3125
85.3125
90.4375
98.125
106.875
115.125
121.375
125.4375
127.4375
127.625
126.4375
124.1875
120.6875
115.6875
109.8125
104.125
99.75
96.625
94.8125
93.9375
93.5
93.25
93.0625
92.875
92.6875
92.4375
92.125
91.75
91.4375
90.875
90.1875
89.375
88.375
87.375
86.625
85.9375
85.125
84.3125
83.875
84.125
86.25
91.5625
99.4375
108.125
116.25
122.4375
126.3125
128.3125
128.5
127.25
124.9375
121.4375
116.6875
110.8125
105.25
100.875
97.75
95.875
95.0
94.625
94.375
94.25
93.875
93.625
93.3125
93.0625
92.75
92.3125
91.9375
91.3125
90.5
89.5625
88.5625
87.75
87.0
86.0
84.9375
84.375
85.0625
88.3125
95.0
103.875
113.0625
120.8125
126.3125
129.6875
131.1875
131.0625
129.6875
127.25
123.5
118.125
111.625
105.875
101.4375
98.3125
96.5625
95.875
95.6875
95.5625
95.4375
95.3125
94.9375
94.625
94.25
93.6875
93.125
92.5
91.75
90.8125
89.75
88.875
88.0625
87.25
86.25
85.3125
84.9375
85.9375
89.5625
96.3125
104.75
113.3125
120.4375
125.5
128.375
129.4375
128.9375
127.0625
124.0
119.5
113.75
107.625
102.5
98.75
96.375
95.25
94.75
94.5
94.375
94.25
93.9375
93.5625
93.125
92.75
92.375
91.9375
91.4375
90.6875
89.625
88.5625
87.625
86.875
86.0
85.125
84.1875
83.9375
84.5
87.375
93.25
101.0625
109.375
116.75
121.9375
125.0625
126.0625
125.375
123.4375
120.375
116.0
110.4375
104.6875
100.0625
96.6875
94.5625
93.375
92.8125
92.5
92.375
92.25
92.0625
91.8125
91.4375
91.125
90.8125
90.25
89.6875
89.0
88.0
87.0
86.3125
85.75
85.125
84.4375
83.8125
83.5
84.1875
87.625
94.0
102.25
110.25
117.4375
122.75
125.1875
126.0625
125.5
123.5
120.4375
116.0
110.375
104.75
100.0625
96.75
94.9375
94.0625
93.375
93.0
92.875
92.6875
92.375
92.0
91.6875
91.375
90.875
90.5625
90.125
89.25
88.4375
87.5625
86.6875
85.9375
85.1875
84.25
83.3125
82.9375
83.9375
87.5625
94.3125
102.75
111.375
118.6875
123.8125
126.625
127.5625
126.875
124.75
121.625
117.3125
111.625
105.375
100.1875
96.75
94.5625
93.4375
93.25
93.1875
93.125
93.0625
92.6875
92.3125
92.0
91.625
91.3125
90.875
90.25
89.4375
88.5
87.4375
86.4375
85.75
85.1875
84.3125
83.5625
83.4375
84.6875
88.625
95.8125
104.5
113.0625
120.1875
124.9375
127.5625
128.4375
127.5
125.6875
122.8125
118.625
113.1875
107.3125
102.25
98.5625
96.25
95.0
94.625
94.5
94.3125
94.1875
93.9375
93.75
93.375
92.875
92.5
92.25
91.5625
90.6875
89.75
88.6875
88.125
87.4375
86.375
85.375
84.4375
84.4375
86.3125
91.5
99.5625
108.625
117.25
123.75
127.9375
130.1875
130.6875
129.75
127.625
124.4375
120.125
114.1875
108.0
103.0
99.4375
97.125
96.125
95.625
95.4375
95.3125
95.1875
94.9375
94.5625
94.1875
93.8125
93.4375
92.8125
92.1875
91.3125
90.25
89.1875
88.375
87.625
86.625
85.5
84.8125
85.0625
87.3125
92.875
100.625
109.1875
117.25
123.3125
126.9375
129.125
129.3125
127.875
125.4375
121.5
116.3125
110.1875
104.3125
99.625
96.4375
94.875
94.25
94.3125
94.375
94.5625
94.5625
94.1875
93.75
93.25
92.8125
92.25
91.4375
90.6875
89.75
88.75
87.75
87.0
86.375
85.625
84.625
84.0
84.0625
85.625
90.0625
97.0625
105.3125
113.125
119.3125
123.375
125.375
125.6875
124.4375
121.875
118.125
113.125
107.25
101.875
97.8125
95.0
93.5
92.8125
92.5625
92.5
92.375
92.25
91.8125
91.4375
91.125
90.75
90.375
89.8125
89.1875
88.375
87.4375
86.4375
85.6875
85.0625
84.1875
83.25
82.75
82.9375
85.0625
90.375
98.125
106.75
114.6875
120.625
124.3125
126.0
125.875
124.5
122.0625
118.375
113.4375
107.625
102.25
98.1875
95.375
93.8125
93.125
92.875
92.6875
92.5625
92.375
92.0625
91.6875
91.3125
90.9375
90.5
90.0625
89.3125
88.4375
87.8125
86.8125
86.0
85.5
84.5
83.5625
82.8125
82.9375
85.125
90.3125
98.125
106.875
115.125
121.1875
125.0625
126.75
126.75
125.375
122.75
119.125
114.1875
108.3125
102.875
98.6875
95.8125
94.125
93.4375
93.1875
93.0
92.875
92.625
92.3125
92.0
91.625
91.1875
90.75
90.3125
89.6875
88.875
87.875
86.875
86.0625
85.3125
84.5
83.625
83.125
83.5
85.8125
91.375
99.375
108.1875
116.125
122.125
125.875
127.5625
127.5625
126.125
123.75
120.3125
115.625
109.9375
104.5
100.1875
97.0625
95.3125
94.5
94.125
93.9375
93.8125
93.625
93.3125
93.0
92.6875
92.3125
91.8125
91.3125
90.6875
89.875
88.9375
88.0
87.25
86.4375
85.5
84.5
83.9375
84.5625
87.75
94.375
103.125
112.1875
119.9375
125.4375
128.75
130.0
129.6875
128.1875
125.625
121.8125
116.875
110.8125
104.875
100.4375
97.5
95.8125
95.1875
94.9375
94.875
94.75
94.5625
94.3125
93.9375
93.5625
93.125
92.625
92.0
91.25
90.375
89.3125
88.375
87.5625
86.6875
85.625
84.625
84.25
85.25
88.9375
95.75
104.3125
112.875
119.9375
124.9375
127.8125
128.8125
128.25
126.375
123.4375
119.0625
113.375
107.3125
102.25
98.5
96.125
94.875
94.375
94.1875
94.0625
93.9375
93.5625
93.1875
92.9375
92.5
92.125
91.6875
91.0
90.3125
89.375
88.1875
87.3125
86.5625
85.75
84.875
83.9375
83.5625
84.125
86.75
92.375
100.0
108.1875
115.4375
120.75
123.8125
125.0
124.5
122.75
119.875
115.6875
110.25
104.4375
99.75
96.375
94.1875
93.0625
92.625
92.375
92.25
92.0625
91.6875
91.375
91.0625
90.75
90.3125
89.875
89.3125
88.5625
87.6875
86.6875
85.8125
85.1875
84.4375
83.5625
82.75
82.5
83.3125
86.625
93.0
101.1875
109.6875
116.875
121.9375
124.75
125.75
125.1875
123.375
120.5
116.375
110.9375
105.0625
100.1875
96.625
94.3125
93.1875
92.625
92.375
92.3125
92.1875
91.9375
91.625
91.25
90.875
90.5
90.125
89.5625
88.875
88.0
87.0
86.125
85.4375
84.6875
83.8125
83.0625
82.75
83.4375
86.625
92.9375
101.1875
109.6875
116.9375
122.125
125.1875
126.3125
125.8125
124.0
121.125
117.0625
111.6875
105.8125
100.75
97.0625
94.75
93.625
93.0625
92.875
92.75
92.625
92.375
91.9375
91.5625
91.25
90.8125
90.375
89.8125
89.125
88.25
87.25
86.375
85.625
84.875
84.0
83.25
83.0
83.875
87.25
93.875
102.4375
111.1875
118.5625
123.75
126.75
127.875
127.3125
125.625
122.8125
118.8125
113.4375
107.5
102.3125
98.5
95.9375
94.75
94.25
94.0625
94.0
93.875
93.5625
93.25
92.9375
92.5
92.125
91.6875
91.0625
90.375
89.5
88.5
87.625
86.875
86.0625
85.125
84.125
83.9375
85.4375
89.9375
97.5625
106.5625
115.25
122.25
126.875
129.375
130.0625
129.3125
127.5
124.5625
120.4375
115.125
109.3125
104.0625
100.0
97.5
96.1875
95.5625
95.25
95.0
94.8125
94.5
94.25
93.9375
93.5625
93.125
92.625
92.0
91.1875
90.25
89.1875
88.375
87.625
86.75
85.5625
84.6875
84.6875
86.375
91.1875
98.6875
107.375
115.5625
121.9375
126.1875
128.4375
128.8125
127.8125
125.5625
122.125
117.3125
111.375
105.5625
100.9375
97.5625
95.6875
94.9375
94.5625
94.375
94.25
94.0
93.625
93.25
92.9375
92.5625
92.0625
91.5
90.875
90.0625
89.0625
88.0
87.1875
86.375
85.5
84.5625
83.875
83.75
84.75
88.5
95.0
103.0
111.125
117.8125
122.4375
124.875
125.5
124.5
122.375
119.0625
114.4375
108.6875
103.0
98.625
95.5
93.5625
92.75
92.4375
92.25
92.125
91.9375
91.75
91.375
91.0
90.6875
90.3125
89.875
89.3125
88.4375
87.5
86.5625
85.75
85.0625
84.3125
83.4375
82.6875
82.6875
84.0
88.3125
95.4375
103.8125
111.9375
118.5625
122.9375
125.1875
125.625
124.5625
122.375
119.125
114.5
108.8125
103.3125
98.875
95.6875
93.8125
92.9375
92.5625
92.375
92.25
92.0625
91.8125
91.5625
91.1875
90.875
90.5
90.0
89.4375
88.6875
87.75
86.6875
85.875
85.25
84.5
83.5625
82.875
82.875
84.1875
88.5
95.625
104.1875
112.5
119.1875
123.625
126.0
126.5
125.5
123.3125
120.125
115.625
110.0
104.3125
99.75
96.5625
94.5625
93.6875
93.3125
93.0625
92.9375
92.75
92.4375
92.125
91.75
91.375
91.0
90.5625
89.9375
89.1875
88.1875
87.125
86.375
85.6875
84.875
84.0
83.375
83.375
84.875
89.5
96.9375
105.75
114.25
120.9375
125.3125
127.625
128.125
127.125
125.0
121.875
117.5
111.875
106.0
101.1875
97.75
95.625
94.625
94.25
94.125
94.0625
93.9375
93.6875
93.3125
93.0
92.625
92.25
91.75
91.125
90.3125
89.4375
88.375
87.5
86.875
86.0
85.0
84.25
84.5625
86.875
92.625
101.0625
110.3125
118.625
124.8125
128.6875
130.5625
130.8125
129.6875
127.5
124.125
119.375
113.5625
107.6875
102.625
98.9375
96.9375
96.0
95.625
95.5
95.3125
95.1875
94.875
94.5625
94.1875
93.8125
93.375
92.8125
92.125
91.25
90.25
89.25
88.4375
87.5625
86.5625
85.5
84.875
85.375
88.1875
94.3125
102.625
111.5
119.25
124.875
128.375
129.9375
129.875
128.5
125.875
122.0
116.6875
110.5
104.875
100.5
97.5625
96.0
95.375
95.0
94.8125
94.6875
94.4375
94.1875
93.8125
93.4375
93.0625
92.625
92.0
91.375
90.4375
89.3125
88.3125
87.5
86.6875
85.75
84.8125
84.25
84.4375
86.3125
91.125
98.4375
106.75
114.5625
120.5625
124.3125
126.0625
126.0625
124.625
122.0625
118.3125
113.25
107.4375
102.25
98.375
95.6875
94.1875
93.5625
93.25
93.0625
92.875
92.5625
92.25
91.9375
91.5625
91.1875
90.75
90.25
89.625
88.75
87.75
86.8125
86.125
85.375
84.5
83.6875
83.1875
83.5
85.75
91.1875
99.0
107.625
115.4375
121.3125
124.9375
126.5
126.4375
125.0625
122.5625
118.8125
113.75
107.875
102.5
98.4375
95.75
94.25
93.5625
93.1875
93.0
92.8125
92.5625
92.25
92.0
91.6875
91.375
90.9375
90.5
89.8125
88.875
87.9375
86.9375
86.1875
85.5
84.625
83.8125
83.3125
83.6875
86.0
91.5
99.4375
108.125
115.9375
121.8125
125.5625
127.3125
127.3125
125.875
123.4375
119.8125
114.9375
109.0625
103.5
99.3125
96.375
94.8125
94.125
93.75
93.5625
93.4375
93.125
92.8125
92.4375
92.1875
91.8125
91.375
90.875
90.1875
89.375
88.3125
87.3125
86.625
85.9375
85.0625
84.1875
83.6875
84.0625
86.5
92.1875
100.25
109.0
116.9375
122.9375
126.75
128.5
128.625
127.375
125.0
121.4375
116.5
110.5
104.75
100.25
97.125
95.5
94.8125
94.5625
94.4375
94.375
94.1875
93.9375
93.625
93.25
92.875
92.5
92.0
91.375
90.5625
89.5
88.5
87.75
87.0
86.0625
85.0625
84.625
85.3125
88.6875
95.5
104.375
113.5
121.125
126.4375
129.625
130.875
130.625
129.1875
126.75
123.0
117.9375
111.9375
106.5
102.0625
98.8125
97.25
96.4375
96.0625
95.8125
95.5625
95.375
95.125
94.75
94.4375
94.0625
93.5625
92.9375
92.25
91.3125
90.25
89.375
88.6875
87.8125
86.75
85.75
85.4375
86.5625
90.5
97.5625
106.1875
114.8125
121.9375
126.75
129.5
130.5625
129.9375
128.0625
125.0
120.5625
114.8125
108.5625
103.25
99.375
97.0625
96.0
95.625
95.5
95.4375
95.25
94.9375
94.5625
94.1875
93.875
93.4375
92.9375
92.3125
91.4375
90.4375
89.3125
88.375
87.625
86.8125
85.8125
85.0
84.6875
85.375
88.3125
94.1875
102.0625
110.375
117.625
122.75
125.8125
126.9375
126.375
124.5
121.5625
117.25
111.625
105.75
100.9375
97.4375
95.3125
94.3125
93.8125
93.5625
93.4375
93.25
93.0
92.6875
92.4375
92.0625
91.6875
91.25
90.625
89.875
88.9375
87.875
87.0
86.3125
85.5625
84.6875
83.875
83.75
84.5625
88.0
94.5625
102.625
111.125
118.25
123.0625
125.75
126.9375
126.4375
124.5
121.5625
117.25
111.625
105.6875
100.8125
97.375
95.3125
94.4375
93.875
93.375
93.125
92.9375
92.75
92.5
92.125
91.8125
91.5625
91.3125
90.875
90.0625
89.125
88.0625
87.1875
86.4375
85.5625
84.6875
83.9375
83.6875
84.6875
88.3125
95.0625
103.5
112.0625
119.3125
124.3125
127.1875
128.125
127.4375
125.5
122.5625
118.375
112.875
107.0
102.0625
98.375
96.0
94.875
94.375
94.0625
93.875
93.6875
93.5625
93.1875
92.8125
92.625
92.1875
91.875
91.25
90.375
89.5
88.5
87.5625
86.8125
86.1875
85.25
84.5
84.3125
85.3125
89.0625
96.0625
104.6875
113.4375
120.625
125.625
128.4375
129.3125
128.6875
126.9375
124.125
119.9375
114.9375
108.8125
103.25
100.0
97.25
96.0625
96.5625
93.4375
94.375
98.375
93.0
95.0
94.75
93.25
93.625
92.6875
92.25
91.75
90.5
89.5625
88.8125
88.0
87.1875
86.3125
85.4375
85.375
87.125
92.125
100.0
109.25
117.875
124.625
129.0625
131.3125
131.8125
131.0
129.0625
126.125
121.875
116.1875
110.0625
105.0625
101.1875
98.4375
97.25
96.75
96.5
96.25
96.0625
95.875
95.625
95.3125
95.0
94.5625
94.0
93.375
92.5
91.4375
90.375
89.625
88.8125
87.8125
86.75
86.0
86.1875
88.4375
93.9375
101.8125
110.6875
118.8125
124.875
128.8125
130.875
130.875
129.8125
127.375
123.625
118.6875
112.5
106.625
102.0
98.8125
97.125
96.4375
96.125
95.9375
95.75
95.5625
95.3125
94.9375
94.5
94.1875
93.75
93.125
92.4375
91.5
90.375
89.375
88.5625
87.75
86.875
85.8125
85.3125
85.3125
86.6875
90.9375
97.8125
105.875
113.875
120.25
124.4375
126.625
126.9375
125.75
123.375
119.8125
114.875
109.0
103.625
99.4375
96.5625
95.0625
94.3125
93.9375
93.75
93.625
93.375
93.0625
92.6875
92.3125
92.0
91.625
91.1875
90.5
89.5625
88.6875
87.625
86.9375
86.3125
85.4375
84.5
84.0
84.25
86.125
91.1875
98.6875
107.1875
115.1875
121.3125
125.1875
127.125
127.25
125.9375
123.5
119.875
114.9375
108.875
103.375
99.25
96.375
94.8125
94.1875
93.8125
93.6875
93.5625
93.375
93.125
92.8125
92.4375
92.0625
91.6875
91.1875
90.5625
89.6875
88.6875
87.6875
86.9375
86.3125
85.4375
84.5625
84.125
84.375
86.5
91.75
99.625
108.25
116.25
122.4375
126.375
128.25
128.3125
126.9375
124.5625
121.125
116.1875
110.3125
104.75
100.5
97.5
95.875
95.1875
94.75
94.5625
94.4375
94.1875
93.875
93.5
93.125
92.8125
92.5
92.125
91.125
90.25
89.375
88.375
87.625
86.875
86.0
85.125
84.5625
84.9375
87.3125
92.875
100.875
109.75
118.125
122.9375
127.375
131.125
129.0
128.875
125.875
122.3125
118.1875
111.6875
105.75
101.5
98.4375
96.5625
95.75
95.4375
95.4375
95.3125
95.1875
94.9375
94.625
94.3125
94.0
93.5625
93.0
92.3125
91.4375
90.375
89.375
88.625
87.9375
86.9375
85.875
85.4375
86.25
89.625
96.375
105.1875
114.25
121.9375
127.4375
130.6875
132.0625
131.8125
130.375
127.9375
124.1875
119.125
113.0625
107.25
103.0
100.0
98.0625
97.1875
96.875
96.75
96.5625
96.3125
96.125
95.75
95.375
95.0
94.4375
93.8125
93.1875
92.1875
91.125
90.1875
89.4375
88.625
87.5
86.5625
86.375
87.5625
91.625
98.75
107.4375
116.125
123.125
127.9375
130.75
131.6875
131.125
129.25
126.1875
121.75
116.0
109.8125
104.5625
100.6875
98.3125
97.25
96.6875
96.4375
96.3125
96.125
95.875
95.5625
95.25
94.875
94.4375
93.8125
93.1875
92.375
91.375
90.25
89.3125
88.5625
87.6875
86.6875
85.8125
85.5625
86.3125
89.3125
95.25
103.0625
111.3125
118.5
123.625
126.75
127.875
127.3125
125.375
122.3125
117.875
112.25
106.375
101.75
98.375
96.25
95.1875
94.75
94.4375
94.25
94.0625
93.75
93.4375
93.1875
92.8125
92.375
91.9375
91.3125
90.5
89.5625
88.5625
87.75
87.0625
86.25
85.3125
84.625
84.4375
85.4375
89.0
95.5
103.6875
112.125
119.1875
124.125
126.9375
127.9375
127.25
125.375
122.25
117.9375
112.3125
106.4375
101.625
98.1875
96.0625
95.0
94.5
94.25
94.125
94.0
93.75
93.4375
93.125
92.8125
92.4375
92.0
91.375
90.5625
89.5625
88.5
87.625
87.0
86.25
85.375
84.625
84.5
85.5
89.3125
96.0625
104.5
113.0
120.0625
125.0625
127.875
128.8125
128.125
126.25
123.25
118.9375
113.375
107.375
102.4375
98.8125
96.5625
95.5625
95.0625
94.8125
94.625
94.5
94.25
94.0
93.625
93.25
92.875
92.5
91.875
91.0625
90.0625
89.0625
88.1875
87.4375
86.625
85.75
85.0625
84.875
86.0
89.9375
96.875
105.5
114.25
121.5
126.4375
129.25
130.125
129.4375
127.5
124.5
120.375
114.8125
108.8125
103.75
100.0625
97.6875
96.5625
96.125
95.875
95.75
95.5625
95.3125
95.0
94.625
94.3125
93.9375
93.4375
92.8125
92.0625
91.1875
90.1875
89.375
88.625
87.75
86.75
86.0
86.0625
87.875
93.0
101.0
110.1875
118.75
125.375
129.75
131.9375
132.4375
131.5625
129.5625
126.5
122.0
116.1875
110.0
104.8125
101.1875
98.9375
97.8125
97.25
97.0
96.875
96.75
96.4375
96.125
95.75
95.375
94.9375
94.375
93.6875
92.875
91.8125
90.8125
90.0
89.25
88.3125
87.25
86.625
86.9375
89.625
95.5625
103.75
112.625
120.5625
126.5
130.1875
132.0
132.125
130.6875
128.125
124.375
119.0625
112.75
106.875
102.25
99.125
97.5625
96.9375
96.6875
96.5625
96.4375
96.25
96.0
95.625
95.3125
94.875
94.375
93.75
93.0
92.0625
90.9375
89.875
89.0625
88.25
87.375
86.375
85.875
86.0
87.75
92.4375
99.5
107.6875
115.625
121.75
125.75
127.75
128.0625
126.75
124.25
120.375
115.1875
109.0625
103.5625
99.5
96.75
95.3125
94.75
94.4375
94.3125
94.1875
93.9375
93.6875
93.375
93.125
92.75
92.3125
91.8125
91.125
90.25
89.1875
88.1875
87.4375
86.75
85.9375
85.0
84.625
85.0625
87.5
93.0
100.75
109.25
117.0
122.75
126.4375
128.125
128.125
126.75
124.125
120.3125
115.0625
108.9375
103.5
99.5
96.8125
95.4375
94.9375
94.625
94.5
94.375
94.1875
93.875
93.5625
93.1875
92.875
92.4375
91.875
91.1875
90.3125
89.25
88.375
87.6875
86.9375
86.0
85.1875
84.8125
85.25
87.875
93.625
101.5625
110.25
118.125
124.0
127.6875
129.3125
129.1875
127.6875
125.0625
121.1875
115.9375
109.875
104.375
100.25
97.5625
96.1875
95.5625
95.3125
95.1875
95.0625
94.8125
94.5
94.1875
93.9375
93.5
93.0625
92.5
91.6875
90.8125
89.6875
88.75
88.0625
87.3125
86.4375
85.625
85.1875
85.6875
88.5625
94.5625
102.8125
111.8125
119.75
125.5625
129.25
130.875
130.6875
129.125
126.5
122.75
117.625
111.5
105.875
101.5
98.5625
97.0
96.375
96.1875
96.125
96.0625
95.875
95.5625
95.25
94.9375
94.5625
94.0625
93.5
92.8125
91.875
90.875
89.875
89.1875
88.4375
87.4375
86.5
86.25
87.1875
91.0
98.125
106.875
115.9375
123.4375
128.625
131.6875
132.875
132.3125
130.875
128.4375
124.125
118.6875
112.5625
106.8125
102.5625
99.9375
98.8125
98.0
97.5625
97.4375
97.25
97.25
97.0625
96.5625
95.8125
95.375
94.875
94.0625
93.375
92.625
91.5625
90.5625
89.8125
89.0
87.875
86.9375
86.875
88.75
93.6875
101.5625
110.6875
119.0625
125.625
130.125
132.625
133.25
132.375
130.3125
127.0625
122.1875
116.125
109.9375
104.9375
101.25
99.0
97.9375
97.5
97.3125
97.125
97.0
96.8125
96.375
96.0625
95.6875
95.25
94.625
93.9375
93.0625
91.9375
90.8125
90.0
89.25
88.3125
87.25
86.5625
86.375
87.375
90.875
97.125
104.9375
113.0625
119.8125
124.5625
127.3125
128.25
127.4375
125.5
122.25
117.4375
111.5
105.75
101.25
98.125
96.25
95.375
94.9375
94.6875
94.625
94.25
93.875
93.5625
93.1875
92.8125
92.5
92.125
91.5
90.6875
89.6875
88.6875
88.0
87.375
86.4375
85.5
84.875
84.875
86.25
90.5625
97.5
105.8125
114.0625
120.75
125.25
127.6875
128.3125
127.375
125.3125
122.0
117.25
111.375
105.5
100.875
97.625
95.75
95.0625
94.6875
94.4375
94.3125
94.1875
93.875
93.5625
93.25
92.9375
92.5
92.0625
91.375
90.5625
89.625
88.6875
87.875
87.25
86.4375
85.5
84.8125
84.9375
86.5625
91.125
98.3125
106.875
115.3125
121.9375
126.3125
128.8125
129.4375
128.5
126.3125
123.125
118.5625
112.75
106.875
102.125
98.6875
96.5625
95.625
95.4375
95.5625
95.25
95.0
95.0625
94.3125
94.0625
93.75
93.0
92.5625
92.0
91.125
90.1875
89.25
88.5
87.8125
87.125
86.0625
85.5
85.5625
86.875
91.375
98.875
107.5
116.0625
122.6875
127.25
129.9375
130.4375
129.4375
127.5
124.25
119.625
113.8125
107.8125
102.9375
99.5
97.4375
96.4375
96.125
96.0
95.9375
95.6875
95.375
95.125
94.8125
94.4375
94.0
93.5625
92.9375
92.1875
91.25
90.25
89.375
88.6875
87.75
86.6875
85.9375
86.1875
88.5625
94.375
102.75
111.9375
120.25
126.4375
130.3125
132.3125
132.5625
131.5
129.375
126.0
121.25
115.1875
109.125
104.25
100.6875
98.625
97.875
97.5625
97.0625
96.75
96.6875
96.4375
96.0625
95.75
95.4375
95.0
94.375
93.6875
92.8125
91.75
90.75
90.0
89.1875
88.25
87.1875
86.75
87.4375
90.8125
97.375
105.9375
114.8125
122.375
127.8125
131.125
132.625
132.5
131.0
128.125
123.9375
118.25
111.6875
105.875
101.5625
98.75
97.4375
97.0
96.8125
96.75
96.625
96.5
96.25
96.0
95.625
95.125
94.625
94.0
93.125
92.0625
91.0
90.0
89.125
88.25
87.25
86.3125
85.875
86.25
88.5625
93.6875
101.0
109.3125
116.875
122.6875
126.375
128.125
128.125
126.5625
123.6875
119.625
114.25
108.1875
102.9375
99.0
96.5625
95.3125
94.75
94.5
94.375
94.25
93.9375
93.625
93.3125
92.9375
92.5625
92.25
91.8125
91.0
90.0625
88.875
87.9375
87.3125
86.75
85.75
84.8125
84.5625
85.0625
87.8125
93.75
101.6875
110.1875
117.75
123.3125
126.6875
128.125
127.9375
126.25
123.5625
119.625
114.1875
108.0625
102.875
99.0
96.4375
95.25
94.6875
94.3125
94.125
94.0
93.75
93.5625
93.25
92.9375
92.5625
92.1875
91.625
90.9375
90.0625
89.0625
88.125
87.4375
86.625
85.75
84.875
84.5625
85.125
88.0
94.0
102.0625
110.75
118.4375
124.0
127.375
128.875
128.5625
127.125
124.625
120.625
114.9375
109.125
103.8125
99.6875
97.375
96.0625
95.1875
94.9375
94.9375
94.625
94.0625
93.9375
93.8125
93.4375
93.0625
92.5
91.9375
91.4375
90.75
89.6875
88.25
87.5625
86.875
85.8125
85.1875
84.875
85.5
88.375
94.5
102.75
111.5625
119.375
125.25
128.8125
130.3125
130.0
128.25
125.5625
121.875
116.5625
110.9375
105.9375
101.5625
98.4375
97.0
96.3125
95.5625
95.3125
95.3125
95.25
95.0625
94.875
94.625
94.1875
93.75
93.1875
92.375
91.5
90.5
89.5
88.75
87.9375
87.0
86.125
85.9375
87.0
90.8125
97.8125
106.5625
115.375
122.75
127.875
130.875
132.125
131.6875
130.0625
127.4375
123.5625
118.125
111.8125
106.0
101.625
98.875
97.5
97.1875
97.1875
96.9375
96.625
96.5
96.25
95.875
95.4375
94.875
94.25
93.5625
92.8125
91.9375
90.875
90.0
89.3125
88.5
87.4375
86.625
86.6875
88.375
93.3125
101.0
110.0
118.5
125.125
129.5
131.8125
132.4375
131.5625
129.375
126.1875
121.5
115.5
109.125
104.0
100.3125
98.1875
97.3125
96.9375
96.75
96.625
96.5
96.3125
96.0
95.625
95.25
94.75
94.125
93.5
92.625
91.5
90.375
89.4375
88.75
87.8125
86.8125
86.0
85.75
86.625
90.125
96.375
104.3125
112.5
119.375
124.25
127.0
127.875
127.125
125.0625
121.75
117.0625
111.1875
105.3125
100.6875
97.4375
95.5625
94.75
94.4375
94.1875
94.0625
93.875
93.625
93.375
93.0625
92.6875
92.3125
91.8125
91.1875
90.375
89.4375
88.4375
87.625
86.9375
86.125
85.1875
84.5
84.5
85.8125
89.875
96.75
105.0625
113.4375
120.1875
124.8125
127.25
127.875
127.0
125.0
121.8125
117.1875
111.4375
105.6875
101.0625
97.6875
95.6875
94.8125
94.375
94.1875
94.0625
93.875
93.6875
93.4375
93.1875
92.8125
92.4375
92.0
91.375
90.5
89.5
88.5
87.6875
87.0625
86.25
85.3125
84.625
84.5625
85.75
89.8125
96.625
105.0625
113.5
120.4375
125.1875
127.875
128.5625
127.8125
125.8125
122.75
118.4375
112.75
106.875
102.125
98.625
96.5
95.4375
94.875
94.625
94.4375
94.25
94.0
93.75
93.5
93.1875
92.75
92.3125
91.6875
90.875
89.875
88.8125
88.0
87.3125
86.5625
85.625
84.9375
84.875
86.0
89.9375
96.875
105.375
113.9375
121.0
125.9375
128.75
129.625
128.875
126.9375
123.875
119.5625
114.0
107.9375
102.875
99.1875
96.875
95.75
95.3125
95.125
95.0625
94.9375
94.75
94.5
94.1875
93.875
93.5
93.0625
92.5
91.6875
90.75
89.75
88.9375
88.25
87.375
86.375
85.5625
85.625
87.4375
92.5
100.3125
109.3125
117.875
124.5625
128.9375
131.25
131.75
130.875
128.9375
125.8125
121.3125
115.625
109.625
104.6875
101.0
98.75
97.6875
97.25
97.25
97.0
96.4375
96.1875
95.9375
95.5
95.0
94.5
93.9375
93.25
92.4375
91.4375
90.4375
89.75
89.0625
88.1875
87.125
86.5625
86.9375
89.4375
95.25
103.375
112.25
120.1875
126.1875
130.0
131.875
132.0625
130.75
128.375
124.6875
119.375
113.0625
107.125
102.5625
99.4375
97.75
97.0
96.6875
96.5
96.375
96.25
96.125
95.8125
95.4375
95.0625
94.625
94.0625
93.25
92.125
91.0
89.875
89.0
88.1875
87.25
86.3125
85.8125
85.9375
87.375
91.5625
98.25
106.375
114.125
120.375
124.5625
126.75
127.125
126.0625
123.75
120.1875
115.25
109.25
103.6875
99.5625
96.6875
95.1875
94.5
94.125
93.875
93.6875
93.4375
93.1875
92.8125
92.5
92.125
91.75
91.1875
90.5625
89.75
88.75
87.8125
87.0625
86.4375
85.5625
84.6875
84.3125
84.4375
86.25
91.1875
98.625
107.1875
115.1875
121.375
125.375
127.1875
127.3125
126.0
123.625
120.125
115.25
109.3125
103.8125
99.625
96.75
95.25
94.625
94.25
94.125
94.0
93.6875
93.375
93.0625
92.75
92.4375
92.0625
91.5
90.8125
90.0
89.125
88.125
87.375
86.875
86.0625
85.0625
84.5
84.625
86.4375
91.1875
98.375
106.8125
115.0625
121.5
125.75
127.8125
128.125
127.0
124.8125
121.375
116.625
110.875
105.25
100.8125
97.6875
95.875
95.1875
94.8125
94.5625
94.4375
94.25
94.0
93.6875
93.3125
93.0
92.5625
92.0625
91.375
90.5
89.5
88.5
87.75
87.0625
86.1875
85.4375
84.8125
84.8125
86.5
91.1875
98.5625
107.125
115.375
122.0
126.4375
128.8125
129.4375
128.625
126.4375
123.125
118.5625
112.75
106.8125
102.0
98.625
96.5625
95.5625
95.1875
95.0
94.875
94.75
94.625
94.4375
94.1875
93.875
93.4375
93.0
92.375
91.5625
90.625
89.625
88.8125
88.125
87.25
86.1875
85.5625
85.8125
88.125
93.8125
102.0625
111.0625
119.25
125.4375
129.4375
131.3125
131.5
130.375
128.1875
124.8125
120.0625
114.1875
108.125
103.25
99.9375
98.125
97.125
96.6875
96.8125
96.9375
96.375
96.0
95.6875
95.375
95.0
94.5
93.875
93.125
92.25
91.125
90.1875
89.5
88.75
87.75
86.75
86.3125
87.125
90.5
97.1875
105.75
114.625
122.125
127.4375
130.6875
132.0
131.75
130.25
127.625
123.625
118.25
112.0
106.3125
102.0
99.125
97.6875
97.125
96.875
96.75
96.5625
96.375
96.0625
95.6875
95.25
94.8125
94.3125
93.75
92.8125
92.0625
90.9375
89.875
89.1875
88.25
87.3125
86.1875
85.6875
85.875
87.8125
92.75
99.8125
108.0
115.625
121.4375
125.3125
127.125
127.25
125.9375
123.4375
119.5
114.25
108.3125
103.125
99.25
96.625
95.25
94.6875
94.3125
94.1875
94.0625
93.875
93.625
93.3125
92.9375
92.5625
92.0625
91.4375
90.75
89.875
88.875
87.875
87.1875
86.5625
85.6875
84.8125
84.4375
84.75
86.9375
92.125
99.625
108.0625
115.6875
121.5
125.125
126.875
126.875
125.4375
122.875
119.125
114.0
108.0
102.625
98.75
96.0625
94.75
94.1875
93.9375
93.8125
93.6875
93.5
93.1875
92.875
92.5625
92.1875
91.75
91.25
90.625
89.6875
88.6875
87.8125
87.0625
86.375
85.5625
84.75
84.3125
84.5625
86.75
92.0625
99.8125
108.4375
116.3125
122.375
126.1875
127.9375
127.9375
126.5625
124.125
120.5
115.5
109.5
103.9375
99.8125
96.9375
95.4375
94.875
94.5625
94.4375
94.375
94.125
93.8125
93.5
93.125
92.75
92.375
91.875
91.125
90.25
89.3125
88.375
87.5625
86.875
86.0
85.125
84.625
84.875
87.1875
92.625
100.3125
109.0625
117.0625
123.1875
127.1875
129.1875
129.375
128.0625
125.75
122.25
117.375
111.3125
105.375
100.8125
97.6875
95.9375
95.1875
95.0
95.0
94.9375
94.8125
94.5625
94.3125
94.0
93.625
93.1875
92.75
92.125
91.3125
90.3125
89.3125
88.5625
87.875
86.9375
85.9375
85.4375
86.0
89.0
95.4375
104.0
113.0
120.8125
126.4375
129.9375
131.4375
131.25
129.9375
127.5625
124.0
119.0
113.0
107.1875
102.6875
99.5625
97.9375
97.25
96.9375
97.0625
97.125
96.5625
96.0
95.75
95.375
94.9375
94.3125
93.75
93.0
92.125
91.0625
90.125
89.4375
88.625
87.625
86.6875
86.5
87.5625
91.5625
98.6875
107.4375
116.125
123.25
128.25
131.25
132.3125
131.8125
130.0
127.0625
122.8125
117.0625
110.6875
105.3125
101.3125
98.6875
97.4375
97.0625
96.875
96.75
96.5625
96.4375
96.125
95.8125
95.4375
95.0
94.4375
93.8125
92.9375
91.875
90.75
89.8125
89.0
88.1875
87.1875
86.3125
85.9375
86.3125
88.625
93.9375
101.4375
109.625
116.875
122.3125
125.625
127.0625
126.8125
125.1875
122.4375
118.4375
113.0625
107.0625
101.9375
98.3125
95.9375
94.8125
94.375
94.125
94.0625
93.9375
93.625
93.3125
93.0
92.6875
92.3125
91.875
91.3125
90.5625
89.625
88.6875
87.8125
87.125
86.4375
85.5
84.625
84.375
84.9375
87.75
93.625
101.4375
109.8125
117.25
122.6875
125.9375
127.25
126.875
125.25
122.4375
118.4375
113.0
107.1875
102.25
98.5
96.125
95.0
94.375
94.125
94.0625
93.9375
93.6875
93.4375
93.125
92.8125
92.4375
92.0
91.4375
90.6875
89.8125
88.8125
87.875
87.25
86.5
85.625
84.8125
84.5
85.0
87.75
93.5625
101.5
110.0625
117.6875
123.3125
126.6875
128.125
127.8125
126.1875
123.5
119.6875
114.5
108.5625
103.3125
99.4375
96.75
95.5
94.875
94.5625
94.4375
94.25
94.0625
93.8125
93.5
93.25
92.875
92.5
91.9375
91.1875
90.3125
89.25
88.3125
87.5625
86.875
86.0
85.1875
84.8125
85.375
88.125
94.125
102.1875
110.9375
118.625
124.3125
127.875
129.4375
129.3125
127.875
125.25
121.5625
116.4375
110.375
104.9375
100.75
97.875
96.375
95.75
95.5
95.3125
95.25
95.0625
94.8125
94.5
94.25
93.875
93.4375
93.0
92.3125
91.4375
90.4375
89.5
88.75
87.9375
87.0625
86.125
85.8125
86.6875
90.3125
97.125
105.75
114.6875
122.0625
127.1875
130.375
131.625
131.125
129.5625
126.9375
123.0625
117.6875
111.375
105.6875
101.375
98.5625
97.1875
96.8125
96.75
96.8125
96.9375
96.625
96.0625
95.625
95.25
94.8125
94.1875
93.625
92.75
91.6875
90.6875
89.9375
89.3125
88.5625
87.5625
86.6875
86.75
88.3125
93.25
101.125
109.8125
118.4375
125.125
129.625
132.3125
133.0
132.375
130.4375
126.9375
122.0
115.875
109.625
104.375
100.5625
98.5
97.5
97.0625
97.125
97.0625
96.875
96.6875
96.4375
96.0
95.5625
95.125
94.5
93.75
92.9375
91.9375
90.8125
89.9375
89.3125
88.375
87.3125
86.5
86.3125
86.9375
89.875
95.8125
103.625
111.6875
118.625
123.75
126.6875
127.8125
127.1875
125.3125
122.25
117.75
112.1875
106.375
101.75
98.375
96.3125
95.375
94.875
94.6875
94.5625
94.25
94.0625
93.75
93.4375
93.125
92.6875
92.25
91.6875
90.8125
89.875
88.875
88.0
87.25
86.5
85.5625
84.875
84.8125
85.75
89.25
95.6875
103.75
111.9375
118.8125
123.625
126.375
127.25
126.625
124.6875
121.5625
117.0625
111.4375
105.625
100.9375
97.5625
95.5
94.6875
94.25
94.0
93.9375
93.8125
93.5625
93.3125
93.0625
92.75
92.375
91.9375
91.375
90.5
89.625
88.625
87.75
87.125
86.375
85.4375
84.75
84.625
85.625
89.25
95.875
104.1875
112.625
119.75
124.75
127.5625
128.4375
127.6875
125.75
122.6875
118.25
112.6875
106.9375
102.125
98.5625
96.375
95.5625
95.125
94.8125
94.75
94.625
94.4375
94.1875
93.875
93.5625
93.125
92.625
92.0
91.1875
90.1875
89.1875
88.3125
87.6875
86.9375
86.0
85.1875
85.125
86.125
89.6875
96.25
104.625
113.0625
120.25
125.375
128.375
129.4375
128.875
127.0625
124.1875
120.0625
114.625
108.625
103.4375
99.625
97.1875
96.0625
95.625
95.375
95.25
95.125
95.0
94.75
94.5625
94.3125
93.8125
93.375
92.875
92.0625
91.0
90.0
89.25
88.5625
87.75
86.875
85.9375
85.875
87.375
91.9375
99.4375
108.25
116.875
123.8125
128.3125
130.75
131.4375
130.75
128.875
125.875
121.6875
116.125
110.0625
104.9375
101.0625
98.6875
97.625
97.125
96.875
96.8125
97.0
96.6875
96.125
95.75
95.375
94.9375
94.3125
93.6875
92.875
91.8125
90.75
90.0
89.375
88.4375
87.3125
86.6875
87.0625
89.5
95.3125
103.4375
112.3125
120.4375
126.5
130.375
132.25
132.4375
131.25
128.875
125.375
120.375
114.25
108.375
103.6875
100.375
98.5
97.6875
97.25
97.0625
96.9375
96.8125
96.625
96.3125
96.0625
95.6875
95.1875
94.5625
93.8125
92.9375
91.75
90.625
89.75
89.0
88.0
87.0
86.375
86.3125
87.5
91.3125
97.75
105.625
113.4375
119.8125
124.25
126.75
127.3125
126.3125
124.125
120.75
115.9375
110.0625
104.5625
100.3125
97.375
95.75
95.0
94.6875
94.5625
94.375
94.0625
93.75
93.375
93.125
92.75
92.375
91.8125
91.125
90.3125
89.3125
88.375
87.625
87.0
86.125
85.25
84.75
84.9375
86.5
91.0
98.125
106.4375
114.375
120.6875
124.875
127.0625
127.375
126.3125
124.0625
120.625
115.8125
109.9375
104.375
100.1875
97.25
95.625
94.9375
94.5
94.3125
94.1875
93.9375
93.625
93.3125
93.0
92.625
92.25
91.8125
91.1875
90.3125
89.375
88.375
87.625
87.0
86.1875
85.25
84.75
84.8125
86.4375
91.125
98.375
106.875
115.0625
121.5
125.8125
128.0625
128.4375
127.375
125.125
121.8125
117.125
111.25
105.3125
100.6875
97.5625
95.75
95.0625
94.75
94.625
94.5625
94.375
94.125
93.8125
93.5625
93.1875
92.8125
92.3125
91.625
90.8125
89.8125
88.8125
88.0625
87.375
86.5
85.5625
85.0625
85.125
86.8125
91.5625
98.9375
107.625
115.8125
122.375
126.8125
129.125
129.625
128.625
126.5
123.3125
118.75
112.9375
107.0
102.0
98.3125
96.625
95.75
95.125
95.375
95.3125
95.125
95.1875
94.8125
94.3125
93.75
93.375
93.0625
92.5
91.875
91.0625
90.125
89.25
88.375
87.375
86.3125
85.75
86.125
88.375
94.0625
102.1875
111.1875
119.375
125.5
129.375
131.375
131.5
130.25
127.875
124.5625
119.875
113.9375
108.25
103.5625
100.1875
98.25
97.5625
97.25
97.125
97.125
97.0
96.75
96.0625
95.5
95.125
94.5
94.0
93.25
92.3125
91.3125
90.5
89.75
89.0
88.0
86.9375
86.5
87.4375
91.0
97.8125
106.4375
115.375
122.9375
128.3125
131.5
132.8125
132.5
130.875
128.125
124.0625
118.5625
112.25
106.625
102.3125
99.5
98.125
97.5
97.25
97.125
96.9375
96.8125
96.5625
96.25
95.875
95.375
94.875
94.25
93.5
92.4375
91.3125
90.375
89.625
88.8125
87.75
86.875
86.4375
86.6875
88.6875
93.625
100.8125
108.9375
116.3125
122.0625
125.6875
127.4375
127.4375
126.125
123.5625
119.6875
114.4375
108.4375
103.25
99.3125
96.8125
95.625
95.0
94.6875
94.5
94.375
94.125
93.75
93.4375
93.125
92.8125
92.3125
91.75
91.0625
90.1875
89.1875
88.3125
87.625
86.875
86.0
85.1875
84.875
85.25
87.6875
93.125
100.8125
109.0625
116.5625
122.3125
125.6875
127.3125
127.0
125.5
122.875
118.9375
113.75
107.875
102.75
99.0625
96.5625
95.25
94.6875
94.3125
94.0625
93.875
93.625
93.5
93.3125
93.0625
92.8125
92.375
91.75
91.0
90.125
89.0625
88.125
87.4375
86.6875
85.6875
84.875
84.5625
85.0
87.5625
93.25
101.0625
109.6875
117.4375
123.25
126.8125
128.5
128.375
126.9375
124.375
120.625
115.4375
109.375
103.9375
99.9375
97.125
95.75
95.1875
94.875
94.75
94.625
94.3125
94.0
93.75
93.4375
93.125
92.75
92.1875
91.5
90.625
89.625
88.75
88.0
87.1875
86.3125
85.5
84.875
85.6875
87.9375
93.125
101.8125
110.375
117.875
123.875
127.625
129.3125
129.125
128.125
125.5625
121.75
117.1875
110.8125
104.875
100.8125
97.875
96.125
95.625
95.5625
95.375
95.375
95.125
94.8125
94.5625
94.3125
94.0
93.625
93.125
92.4375
91.5625
90.625
89.5625
88.75
88.0
87.0
86.125
85.875
86.5
89.8125
96.3125
104.875
113.75
121.375
126.875
130.125
131.5
131.25
129.6875
127.0625
123.0625
117.75
111.6875
106.0625
101.9375
99.1875
97.8125
97.375
97.25
97.1875
97.0
97.0
97.0
96.5
95.875
95.4375
94.8125
94.0
93.1875
92.3125
91.125
90.125
89.4375
88.625
87.5
86.6875
86.6875
88.1875
92.875
100.5
109.375
118.25
125.25
130.0
132.75
133.5
132.75
130.6875
127.5
122.875
116.9375
110.5625
105.1875
101.25
98.9375
97.875
97.5625
97.5
97.375
97.25
96.9375
96.625
96.25
95.9375
95.4375
94.875
94.1875
93.375
92.25
91.25
90.3125
89.5
88.6875
87.625
86.8125
86.5625
87.1875
90.0
95.5625
103.0
111.0
118.0625
123.1875
126.3125
127.5625
127.125
125.3125
122.25
117.8125
112.125
106.125
101.3125
97.9375
95.8125
94.9375
94.5625
94.4375
94.375
94.25
93.9375
93.6875
93.375
93.0
92.625
92.1875
91.625
90.8125
89.8125
88.8125
88.0
87.375
86.625
85.6875
85.0
84.75
85.8125
89.5625
95.75
103.625
112.0625
119.125
124.125
126.6875
127.4375
126.8125
124.8125
121.6875
117.1875
111.8125
106.25
101.375
98.0625
96.0625
95.125
94.75
94.5625
94.5
94.3125
93.875
93.625
93.3125
92.9375
92.625
92.25
91.625
90.875
90.0625
89.0
88.125
87.5625
86.8125
85.75
84.9375
84.75
85.625
89.0625
95.4375
103.5625
112.0
119.0625
124.125
127.1875
128.25
127.6875
125.8125
122.75
118.5
112.875
106.75
101.75
98.25
96.125
95.25
94.875
94.6875
94.625
94.5
94.25
94.0625
93.6875
93.375
93.0625
92.5625
91.9375
91.1875
90.25
89.1875
88.3125
87.6875
86.875
86.0
85.3125
85.125
86.0625
89.5625
96.0
104.375
112.875
120.0625
125.1875
128.125
129.1875
128.5625
126.875
124.125
120.0
114.5625
108.5
103.3125
99.5625
97.1875
95.9375
95.375
95.375
95.5625
95.375
95.25
94.5625
94.25
94.6875
93.9375
93.5625
93.25
92.25
91.3125
89.75
88.875
88.3125
87.375
86.8125
86.1875
86.125
87.625
92.3125
99.5
108.125
116.875
123.5625
128.0
130.625
131.25
130.5
128.75
125.6875
121.5625
116.125
110.0625
105.0
101.1875
98.8125
97.5625
97.125
97.0
96.9375
97.0
97.0625
96.9375
96.25
95.5
95.0625
94.6875
94.1875
93.1875
92.0625
90.9375
89.9375
89.25
88.375
87.375
86.8125
87.1875
89.8125
95.625
103.9375
112.9375
121.0625
127.1875
131.0625
132.875
133.0625
131.9375
129.5625
126.0
121.0
114.75
108.4375
103.25
100.875
99.4375
97.8125
97.75
97.625
97.375
97.3125
96.9375
96.6875
96.5
96.1875
95.625
94.875
94.1875
93.375
92.1875
91.125
90.25
89.4375
88.5625
87.4375
86.875
86.8125
87.9375
92.0
98.5
106.375
114.25
120.75
125.125
127.375
127.9375
126.875
124.5625
121.0625
116.1875
110.125
104.625
100.5
97.5625
96.0
95.375
95.25
95.3125
94.5625
94.375
94.5
94.0
93.6875
93.375
92.75
92.25
91.625
90.5625
89.75
89.0
88.5
87.8125
86.625
85.75
85.0625
85.125
86.9375
91.3125
98.3125
106.75
114.625
120.9375
125.0625
127.0625
127.3125
126.0
123.875
120.625
115.375
109.1875
103.875
99.875
97.0625
95.5
94.9375
94.6875
94.625
94.5
94.3125
94.0625
93.6875
93.4375
93.125
92.5625
91.9375
91.25
90.5625
89.8125
88.6875
87.875
87.25
86.3125
85.375
85.25
85.375
86.875
91.5625
98.625
107.0
115.375
121.9375
125.875
128.4375
128.4375
126.8125
125.125
121.9375
116.5625
110.8125
103.625
98.6875
98.875
97.3125
95.5625
95.125
94.75
94.3125
94.0
94.0625
94.5
94.5
93.8125
92.375
91.8125
92.1875
91.3125
90.625
89.375
87.5
87.375
86.875
85.8125
85.625
85.875
87.875
92.0625
100.0
109.375
117.0625
124.0
127.75
128.0625
128.3125
127.125
126.375
123.125
117.75
112.5625
106.8125
101.25
98.375
97.4375
95.9375
95.125
95.4375
94.5
94.75
95.4375
94.8125
94.3125
94.625
94.875
93.8125
91.625
90.625
90.6875
90.0
88.6875
89.125
89.1875
86.875
86.25
87.1875
88.9375
94.6875
103.25
112.0625
119.9375
126.125
130.0625
131.4375
131.375
130.0625
127.6875
124.1875
119.125
113.125
107.0
102.375
100.5
98.3125
97.0625
97.4375
97.25
97.0625
97.0
96.5625
96.5
96.25
95.5625
94.9375
94.375
93.625
92.625
91.25
90.75
90.0
88.75
87.9375
87.5
87.25
88.0625
92.1875
99.75
108.5625
117.0625
124.1875
129.125
132.25
133.5
132.625
130.8125
127.875
123.4375
117.8125
111.75
106.1875
102.125
99.4375
98.0625
97.8125
97.5
97.4375
97.75
97.625
97.125
96.5625
96.0625
95.25
95.0
94.5625
93.75
92.75
91.5625
91.0625
90.25
88.5
87.5625
87.1875
87.25
87.625
89.625
95.4375
102.375
110.125
117.5625
122.875
126.5625
128.125
127.625
125.5
122.6875
118.75
113.5
107.75
102.375
98.4375
96.8125
96.75
95.875
94.5625
94.75
94.75
94.75
94.1875
93.5
93.6875
93.0625
92.375
92.0
91.25
90.3125
89.25
88.3125
87.625
86.9375
86.125
85.5
85.375
86.0625
89.0
95.3125
103.25
111.1875
118.4375
123.8125
126.5
127.5
127.1875
125.6875
122.25
118.75
113.1875
106.75
101.3125
97.0625
97.0625
96.25
94.5
95.125
96.125
95.0
94.0
93.6875
92.5
92.3125
93.5625
92.3125
91.1875
91.625
90.625
89.0625
88.5625
87.8125
86.875
86.125
85.3125
84.75
85.6875
89.25
95.4375
103.8125
112.375
119.1875
124.6875
127.75
128.5
128.0625
126.125
123.25
119.1875
113.5
107.5625
102.75
99.0625
96.9375
96.0
95.25
95.0625
95.125
94.8125
94.5
94.1875
94.125
94.0625
93.6875
93.25
92.5625
91.5
90.5625
89.5
88.6875
88.0625
87.1875
86.3125
85.5625
85.5
86.4375
89.875
96.375
104.6875
113.25
120.375
125.5625
128.5625
129.6875
129.125
127.1875
124.375
120.125
114.5625
108.4375
103.25
99.5
97.1875
96.1875
95.8125
95.6875
95.625
95.4375
95.1875
94.9375
94.625
94.1875
93.9375
93.5625
92.875
92.0
91.1875
90.25
89.75
89.125
87.875
86.875
86.375
86.25
87.4375
91.9375
99.3125
108.1875
116.875
123.625
127.8125
131.0
132.0625
130.375
128.875
126.125
121.5
115.9375
110.1875
105.1875
101.5
99.1875
98.125
97.625
97.375
97.25
97.125
96.8125
96.5
96.3125
96.0
95.1875
94.75
94.1875
93.0
92.0
91.0625
90.25
89.5
88.5
87.625
87.25
87.5625
90.1875
96.5
104.75
113.625
121.875
128.0
131.625
133.375
133.4375
132.0
129.1875
126.5
120.25
113.6875
108.5625
103.6875
100.8125
98.5
97.875
98.0625
97.8125
97.625
97.375
97.1875
96.9375
96.5
96.0625
95.6875
95.0625
94.25
93.5
92.4375
91.25
90.125
89.4375
88.3125
87.25
87.3125
87.375
88.0625
92.125
99.0625
107.125
114.6875
121.0625
125.5625
127.75
127.9375
126.875
124.5625
121.0
116.0625
109.9375
104.375
100.375
97.5
95.9375
95.375
95.0625
95.0625
95.0
94.75
94.3125
93.875
93.75
93.5
93.0625
92.4375
91.6875
90.8125
89.8125
88.8125
88.125
87.4375
86.5625
85.6875
85.3125
85.5
87.375
92.25
99.5
107.75
115.5625
121.6875
125.6875
127.5625
127.75
126.4375
124.0
120.3125
115.0625
109.0
104.25
100.1875
97.125
96.1875
95.3125
94.4375
94.6875
95.0625
94.75
94.25
94.0
93.625
93.125
92.8125
92.4375
91.5625
90.5
89.6875
88.75
88.1875
87.5625
86.5
85.75
85.25
85.5
88.0
93.25
100.5
108.375
116.5625
123.625
125.8125
126.8125
128.625
127.4375
125.0625
120.8125
115.0
110.0625
104.75
100.375
98.0625
96.4375
95.375
95.0
94.6875
94.75
94.9375
94.75
94.625
94.25
93.625
93.125
92.75
92.0
90.9375
89.9375
89.125
88.375
87.4375
86.625
85.9375
85.5
85.8125
87.8125
92.875
100.8125
109.6875
117.5625
124.0
128.5
130.5625
130.0
128.5
126.0
122.25
117.3125
111.25
105.4375
100.9375
97.875
96.4375
96.0625
95.5625
95.5
95.75
95.25
94.9375
94.875
94.375
93.75
93.625
93.4375
92.75
92.0
90.8125
89.8125
89.5
89.8125
89.6875
87.5
85.0625
84.375
89.0
99.3125
104.5625
111.0
117.3125
125.1875
135.9375
125.1875
107.1875
116.5625
139.3125
138.6875
127.125
113.125
110.25
104.9375
99.375
91.375
82.0
86.375
91.25
97.5625
94.6875
96.625
113.1875
103.125
91.5
91.1875
96.6875
103.75
102.4375
95.3125
96.875
68.375
46.625
94.3125
107.0
86.1875
99.75
96.0625
99.625
113.125
110.3125
128.8125
144.0
138.75
140.1875
135.125
127.375
129.375
121.8125
111.4375
103.25
100.4375
92.125
97.3125
110.4375
105.0
100.0
103.6875
101.0
103.9375
101.625
92.0
87.4375
90.125
92.875
87.5
93.75
98.75
91.875
97.25
93.125
86.6875
88.5625
85.6875
86.625
90.8125
90.0
96.25
105.5625
111.25
118.5625
124.1875
127.5
129.1875
127.625
125.375
122.375
118.1875
112.4375
106.125
101.375
98.3125
97.125
96.375
95.375
94.6875
95.25
95.4375
94.5
94.75
94.125
93.375
93.25
93.0625
91.6875
90.1875
90.0
89.375
88.75
88.1875
87.5
86.3125
85.5
85.5625
86.6875
90.4375
97.0
105.3125
113.5
120.1875
124.6875
127.1875
127.9375
127.0
124.8125
121.5625
116.875
111.125
105.625
101.25
98.1875
96.4375
95.6875
95.1875
94.9375
94.8125
94.625
94.375
94.125
93.9375
93.5625
93.125
92.5
91.75
90.5
89.375
89.625
88.4375
87.25
86.75
85.375
85.4375
85.5625
86.4375
90.75
97.4375
105.75
114.1875
120.875
125.4375
127.8125
128.3125
127.25
125.125
122.0625
117.5
111.5625
105.875
101.3125
98.125
96.3125
95.5
95.1875
95.0
95.0
94.8125
94.5625
94.3125
94.0625
93.625
93.1875
92.75
92.125
91.3125
90.25
89.25
88.5625
87.9375
87.0
86.0625
85.5
85.5625
87.1875
91.8125
99.0625
107.75
116.0625
122.5625
127.0
129.3125
129.75
128.6875
126.625
123.375
118.6875
112.875
106.875
102.25
99.125
97.25
96.5
96.125
95.9375
95.875
95.6875
95.4375
95.1875
94.8125
94.3125
93.9375
93.375
92.75
91.9375
91.0625
90.0625
89.3125
88.75
87.875
86.75
86.3125
86.5625
88.75
94.3125
102.4375
111.25
119.25
125.3125
129.125
130.875
130.875
129.6875
127.4375
124.125
119.25
113.25
107.5
103.125
99.9375
98.0625
97.3125
97.1875
97.0625
97.0
96.8125
96.625
96.4375
96.0625
95.75
95.5
95.0625
94.0
92.5
91.3125
90.75
90.0625
89.0
87.875
87.0
86.8125
88.0
92.3125
99.9375
108.875
117.625
124.75
129.875
132.875
133.5625
132.75
130.875
128.0
123.6875
117.75
111.25
105.8125
101.8125
99.25
98.125
97.8125
97.5625
97.5
97.4375
97.3125
97.3125
96.75
96.3125
96.0625
95.5
94.5625
93.5625
92.625
91.375
90.5
89.875
88.9375
88.125
87.4375
87.125
87.5
90.1875
95.8125
103.1875
111.25
118.4375
123.375
126.5
128.125
127.375
125.6875
123.1875
118.625
112.9375
107.125
101.625
96.875
94.6875
95.875
97.5625
97.0
96.625
94.5625
93.625
94.25
94.125
94.6875
94.0625
92.3125
91.625
90.875
90.0
88.875
88.6875
88.125
87.0625
86.1875
85.375
85.3125
86.0
89.5
95.875
103.8125
111.5625
118.375
124.125
126.25
125.6875
125.0625
124.625
122.625
118.8125
112.4375
105.5
101.0
97.125
95.375
94.875
94.375
94.3125
93.9375
93.625
93.875
94.1875
93.5625
93.1875
93.0625
92.3125
91.4375
90.875
89.9375
88.9375
88.25
87.5
86.5625
85.75
85.1875
85.0
86.0
89.8125
96.1875
104.3125
112.8125
119.6875
124.625
127.1875
127.6875
127.4375
125.0625
121.8125
117.875
112.0
106.1875
101.5
98.625
96.875
95.25
95.375
95.0625
94.625
94.75
94.4375
94.375
94.5
93.5625
92.6875
92.5
91.8125
91.125
90.125
89.125
88.375
87.6875
87.0
86.125
85.3125
85.125
86.5625
90.8125
97.375
105.625
114.4375
121.9375
126.1875
127.5625
129.0625
129.6875
128.5
126.875
120.6875
110.4375
103.25
97.4375
105.9375
98.5625
80.3125
94.25
102.0
96.3125
94.5625
95.375
95.8125
96.5
95.0625
93.125
92.0
91.4375
90.3125
90.0625
91.125
90.1875
87.5
86.8125
86.25
86.4375
86.1875
87.0625
93.0625
101.125
108.875
117.0625
123.75
128.375
130.9375
130.8125
129.6875
128.0625
124.1875
119.4375
113.6875
107.5625
102.9375
99.4375
97.5625
96.9375
96.75
96.8125
96.875
96.6875
96.5625
96.3125
95.75
95.25
94.9375
94.375
93.5
92.5
91.4375
90.375
89.5
88.8125
87.8125
86.875
86.5
87.4375
91.3125
98.3125
107.125
116.125
123.5
128.8125
132.0625
133.375
133.0
131.3125
128.5625
124.4375
118.8125
112.3125
106.5625
102.3125
99.625
98.1875
97.5625
97.375
97.375
97.3125
97.1875
97.0
96.8125
96.5
96.0625
95.5
94.6875
93.8125
92.8125
91.625
90.5
89.8125
89.125
87.875
86.9375
86.75
86.9375
89.0
94.3125
102.4375
111.25
117.25
122.125
126.125
127.9375
127.25
125.0
121.25
117.1875
115.125
109.875
103.0625
99.25
97.0
95.625
94.9375
96.0
96.0
93.125
93.25
94.0625
93.6875
93.6875
93.1875
93.5
92.75
91.5
92.1875
89.75
86.375
84.625
87.875
88.6875
84.0625
84.6875
86.6875
89.8125
95.0
102.375
112.25
118.5
122.3125
126.875
128.1875
126.875
124.5625
121.6875
118.1875
112.1875
106.125
102.625
99.0625
96.0
95.3125
94.75
94.4375
94.625
94.125
93.9375
94.125
93.8125
93.1875
93.0
92.625
91.8125
90.875
89.9375
89.0625
88.5625
87.9375
86.75
85.9375
85.125
84.8125
85.875
89.25
95.5
103.5625
111.6875
118.625
123.5625
126.4375
127.4375
126.875
125.25
122.375
118.1875
112.75
106.8125
102.0625
98.6875
96.625
95.5625
94.9375
94.5
94.625
94.3125
94.125
94.125
93.75
93.4375
93.1875
92.8125
92.0625
91.25
90.3125
89.125
88.375
87.9375
87.0625
86.0
85.375
85.125
86.125
90.0
96.5
104.625
113.0
120.0625
125.0625
128.375
129.0625
128.25
126.625
123.125
119.0
114.0
107.3125
102.3125
99.25
96.75
95.4375
95.75
96.5
95.9375
95.5
95.0
94.875
94.25
93.625
93.6875
93.25
92.875
91.625
89.9375
89.0625
88.6875
86.0625
87.125
91.0
87.875
85.0
88.0625
92.3125
99.125
108.5
116.5625
123.25
127.8125
130.3125
130.9375
129.8125
127.875
124.8125
120.1875
114.25
108.0625
103.125
99.75
97.625
96.8125
96.5625
96.5
96.4375
96.25
96.0
95.8125
95.5
95.0
94.625
94.5
94.0
92.9375
91.75
90.875
90.0625
89.25
88.0
86.8125
86.375
87.125
90.625
97.25
107.125
119.8125
124.125
119.8125
125.625
131.8125
126.8125
129.375
142.0
127.75
120.6875
120.3125
102.8125
98.625
105.25
94.9375
99.5
99.0625
92.625
97.5
101.3125
97.0625
95.3125
97.4375
95.8125
95.375
95.6875
94.1875
93.0625
92.375
91.0
90.125
89.375
88.5625
87.5625
86.75
86.875
89.25
94.25
101.1875
109.1875
116.75
122.5
126.0
127.875
128.0
126.5625
124.0625
120.125
114.4375
108.25
103.3125
99.75
97.4375
96.25
95.75
95.5
95.25
94.9375
94.875
94.9375
94.4375
94.0625
93.5625
93.0625
92.4375
91.625
90.6875
89.6875
89.0
88.4375
87.5
86.5625
85.6875
85.5
85.9375
88.375
93.8125
101.125
109.375
116.875
122.375
125.75
126.625
126.1875
125.6875
123.25
118.1875
112.375
107.0
101.875
98.4375
96.9375
96.1875
95.5625
95.25
94.4375
94.125
93.9375
93.3125
93.25
93.3125
93.125
92.5
92.0
91.375
90.3125
89.1875
88.25
87.625
87.0625
85.8125
85.125
85.0625
85.5
88.75
94.6875
102.1875
110.625
118.1875
123.75
126.3125
128.0625
127.875
125.25
122.625
118.4375
113.1875
107.875
102.875
99.0625
96.75
95.875
95.25
95.0
95.1875
95.0
94.4375
94.5625
94.5625
93.625
93.5625
93.1875
91.875
91.625
90.875
89.25
88.5625
87.9375
87.1875
86.3125
85.4375
85.4375
86.0625
88.75
94.5625
102.3125
110.8125
118.1875
124.0
127.6875
128.5
128.1875
127.0
124.125
120.25
114.75
108.3125
103.25
99.0625
97.125
96.1875
95.4375
95.4375
95.4375
95.25
94.625
94.25
94.1875
94.25
94.1875
93.5
92.5625
91.8125
90.9375
90.0625
89.0
88.0
87.6875
86.8125
85.8125
85.625
86.25
88.6875
93.8125
101.5
110.25
118.0625
123.9375
127.6875
129.4375
129.0625
127.375
124.6875
120.6875
115.1875
109.3125
103.875
99.75
97.25
96.0
95.6875
95.5
95.4375
95.75
95.3125
94.9375
94.9375
94.3125
93.5625
93.3125
92.6875
91.9375
91.25
89.875
89.0
88.3125
87.75
87.0625
86.375
85.875
86.3125
89.0
94.5
102.375
111.125
118.75
124.8125
128.5625
130.0
129.9375
128.25
125.625
121.4375
116.125
110.375
104.875
100.6875
98.0625
97.0625
96.5
95.8125
95.6875
95.5625
95.125
95.1875
94.9375
94.4375
94.6875
94.1875
93.3125
92.6875
91.6875
90.5625
89.6875
88.625
87.625
87.0
86.0625
85.75
86.625
89.3125
95.0625
102.8125
111.375
119.3125
125.125
128.75
130.375
130.1875
128.5
125.6875
121.9375
116.8125
110.5625
104.9375
100.8125
98.1875
96.75
96.3125
96.0
95.625
95.75
96.5
95.25
94.4375
94.75
94.625
94.625
93.75
92.5625
91.5
90.625
89.75
88.75
88.25
87.4375
86.4375
86.125
86.6875
89.75
95.375
103.0625
111.5625
119.125
124.875
128.375
130.0625
130.25
129.125
126.875
123.25
118.1875
111.875
106.125
101.5625
98.5625
97.3125
97.0
97.0
96.1875
96.1875
97.5
95.6875
95.0625
96.5625
95.5
94.9375
95.1875
93.6875
92.5
91.4375
90.4375
90.0625
88.75
87.4375
86.8125
86.5
87.0625
90.4375
96.5
104.5625
113.875
121.625
126.75
130.5625
132.1875
131.8125
130.875
127.875
123.6875
119.375
111.75
106.125
102.625
100.375
99.125
98.0625
96.6875
96.0625
97.0
96.75
94.3125
96.5625
97.0625
95.75
95.1875
94.4375
93.5625
93.6875
93.9375
90.875
88.3125
88.75
88.75
84.4375
88.375
90.0625
91.9375
96.5625
103.125
112.3125
120.6875
126.625
129.25
130.5
130.4375
129.125
126.75
122.75
116.875
109.625
105.0
101.6875
98.6875
98.25
93.6875
95.875
97.3125
93.0625
99.4375
96.8125
90.9375
94.8125
101.4375
97.0625
92.625
90.375
90.375
91.6875
91.4375
93.5
90.25
85.75
86.125
88.25
88.4375
91.4375
98.625
107.1875
115.4375
121.9375
126.1875
132.1875
131.8125
129.5625
128.1875
127.5625
121.1875
115.4375
109.0625
103.8125
101.75
99.5
98.1875
98.3125
96.8125
95.4375
96.375
97.4375
97.125
96.3125
96.25
96.5625
95.5625
94.25
93.6875
92.25
90.25
90.0625
91.0625
88.75
86.375
86.0625
84.375
89.875
95.75
97.5
107.75
114.25
123.875
128.75
129.8125
134.625
131.25
130.5625
129.25
120.625
115.5625
111.1875
106.3125
101.75
98.0625
96.5
97.875
99.0625
95.125
96.875
98.6875
96.125
98.6875
96.6875
93.25
97.8125
96.5
92.5625
92.5
90.9375
89.6875
88.6875
88.875
89.3125
90.625
85.9375
86.875
94.5625
100.25
110.625
119.3125
118.3125
131.0625
134.125
131.3125
131.4375
124.8125
126.375
125.375
118.5
108.5
104.9375
101.625
98.3125
97.6875
98.625
98.5
96.25
97.0625
97.25
97.25
97.5625
96.8125
96.5
96.25
93.875
93.5
96.25
92.625
89.0
90.5
89.5
88.4375
89.125
88.9375
90.0625
96.0
105.875
115.3125
122.125
128.375
132.75
134.875
135.125
134.0
131.875
128.25
122.625
116.25
110.5625
105.625
102.0625
100.25
99.3125
99.0625
99.125
99.0625
98.8125
98.5625
98.3125
98.5
98.125
97.25
96.5625
95.875
94.9375
93.4375
92.625
91.75
90.625
90.3125
88.875
88.125
89.0
92.1875
98.0
105.75
114.375
122.0
127.125
130.75
133.0
132.625
130.75
128.125
123.9375
118.1875
111.25
105.75
101.9375
99.4375
98.3125
98.0625
98.0625
97.9375
97.5625
97.5
97.1875
96.8125
96.5625
96.1875
95.5625
94.8125
93.875
92.875
92.0
90.875
90.0625
89.875
88.6875
87.375
87.5
88.3125
91.5625
95.75
101.1875
110.375
118.4375
122.875
126.5625
130.4375
129.5625
127.5
124.875
120.25
114.25
108.0
103.0625
98.5
96.375
96.0625
95.9375
97.125
98.4375
96.0
93.0625
95.5
96.1875
94.875
93.25
93.8125
93.3125
91.9375
92.3125
90.5
88.5625
89.125
88.25
87.0
86.5625
86.0625
86.9375
89.9375
95.5
103.375
111.75
118.9375
124.3125
127.4375
128.6875
128.3125
126.5625
123.75
119.375
113.5625
107.5625
102.5625
99.0625
97.0
96.0625
95.4375
95.125
95.0625
95.0
95.1875
95.1875
94.8125
94.6875
94.4375
93.75
93.1875
92.125
90.9375
90.0
89.1875
88.5625
87.875
86.8125
86.1875
86.1875
87.0625
90.5
96.9375
105.25
113.5
120.5625
126.3125
129.0
129.875
129.625
127.875
125.0625
120.8125
115.0625
108.625
103.375
99.6875
97.4375
96.4375
96.125
96.1875
96.25
96.1875
96.125
95.9375
95.5625
95.0625
94.5
94.25
93.75
92.6875
91.6875
90.5625
89.6875
89.0625
88.1875
87.25
86.625
86.6875
87.625
91.1875
97.8125
106.0625
114.5625
121.6875
126.625
129.5625
130.5625
129.875
128.0
124.9375
120.5625
114.875
108.6875
103.5625
100.0625
98.0625
97.25
96.9375
96.9375
96.875
96.8125
96.6875
96.3125
96.0
95.6875
95.3125
94.875
94.375
93.4375
92.4375
91.3125
90.3125
89.5625
88.6875
87.5625
86.875
87.0625
88.875
93.9375
101.8125
110.8125
119.25
125.8125
130.125
132.4375
133.0625
132.0625
130.0625
127.0
122.25
116.125
109.9375
105.125
101.3125
99.0625
98.375
98.1875
98.1875
98.125
97.8125
97.5625
97.3125
96.9375
96.5
96.0
95.375
94.625
93.75
92.8125
91.875
91.25
90.625
89.5
88.3125
87.6875
87.9375
90.1875
95.4375
103.0
111.4375
119.3125
125.0625
128.5
130.5
131.1875
130.25
127.875
124.0625
118.5
112.125
106.1875
101.8125
98.875
97.25
96.875
97.0
97.125
97.125
97.125
96.8125
96.3125
95.8125
95.375
94.9375
94.4375
93.625
92.6875
91.5
90.5625
89.875
89.0625
88.0625
87.125
86.625
86.625
88.125
92.5
99.25
107.125
114.875
121.0625
125.125
127.125
127.3125
126.0
123.5
119.75
114.5
108.625
103.4375
99.625
97.0625
95.75
95.25
95.0625
95.0
94.875
94.75
94.5625
94.1875
93.75
93.4375
93.0625
92.4375
91.625
90.6875
89.6875
88.75
88.125
87.5
86.5625
85.75
85.5
85.75
87.625
92.4375
99.5625
107.75
115.4375
121.4375
125.1875
126.875
127.0625
125.625
123.0
119.1875
113.8125
107.8125
102.6875
99.0625
96.8125
95.625
95.125
94.8125
94.625
94.4375
94.125
93.9375
93.875
93.6875
93.3125
92.875
92.4375
91.75
90.6875
89.5
88.5625
88.0625
87.5625
86.6875
85.6875
85.25
85.4375
87.9375
93.5625
101.375
110.125
117.9375
123.75
127.3125
128.75
128.4375
126.875
124.3125
120.4375
115.1875
109.1875
103.9375
100.125
97.6875
96.4375
95.9375
95.6875
95.5625
95.5
95.25
94.9375
94.625
94.375
93.9375
93.25
92.8125
92.0
91.0625
90.3125
89.3125
88.6875
88.1875
87.0625
86.1875
86.0
86.3125
88.75
94.25
102.0
110.5
118.125
123.8125
127.3125
128.8125
128.5625
126.9375
124.375
120.625
115.4375
109.5
104.0625
100.125
97.625
96.25
95.6875
95.4375
95.5
95.5
95.3125
95.125
94.75
94.4375
94.25
93.875
93.4375
92.875
92.125
91.0
89.9375
89.125
88.1875
87.0
86.0625
86.0625
87.3125
91.5625
98.875
107.75
116.4375
123.5
128.125
130.6875
131.5
130.875
129.1875
126.4375
122.3125
116.8125
110.6875
105.5
101.8125
99.3125
98.0
97.5
97.3125
97.1875
97.0625
96.875
96.5625
96.25
95.8125
95.4375
94.875
94.1875
93.4375
92.5625
91.5
90.6875
90.0625
89.0625
87.8125
87.0
87.0
88.5625
93.125
100.3125
108.625
116.875
123.375
127.625
130.0625
130.5625
129.4375
127.25
123.875
119.0
112.6875
106.8125
102.1875
98.9375
97.25
96.4375
96.4375
96.3125
96.25
96.375
95.6875
95.875
95.75
94.875
95.125
94.3125
93.1875
92.6875
91.1875
89.9375
89.25
88.4375
87.6875
86.4375
85.9375
86.0625
87.1875
90.875
97.1875
104.9375
112.875
119.4375
123.875
126.125
126.5625
125.5625
123.1875
119.6875
114.875
109.0
103.6875
99.5625
96.875
95.4375
94.875
94.6875
94.5
94.25
94.125
93.625
93.1875
93.0625
92.8125
92.4375
92.0625
91.5
90.75
89.8125
88.8125
87.875
87.0
86.0625
85.0
84.6875
84.9375
86.5
91.0
97.875
106.0625
113.9375
120.125
124.1875
126.25
126.5
125.1875
122.8125
119.375
114.625
108.5
102.6875
99.0
96.6875
94.75
94.4375
96.25
95.3125
91.8125
93.3125
94.0625
91.8125
93.125
94.875
90.375
92.125
92.3125
89.8125
90.125
87.3125
87.6875
88.375
85.75
85.3125
84.75
85.0
87.25
91.875
98.875
107.25
115.3125
121.625
125.5
127.4375
127.75
126.5625
124.1875
120.625
115.5625
109.5625
104.1875
100.125
97.375
95.875
95.3125
95.0
94.9375
94.875
94.5625
94.4375
94.1875
93.875
93.5625
93.125
92.5625
91.875
90.9375
89.9375
89.0625
88.375
87.8125
86.875
85.875
85.4375
85.625
87.625
92.6875
100.125
108.5625
116.625
122.75
126.5625
128.4375
128.625
127.125
124.6875
121.125
116.25
110.3125
104.6875
100.6875
97.9375
96.3125
96.0625
95.875
95.75
95.875
95.5
95.125
95.125
94.625
94.0
93.8125
93.3125
92.5625
91.4375
90.125
89.4375
89.5
88.875
87.625
86.4375
86.0
86.5625
90.1875
97.3125
105.6875
113.8125
121.3125
126.6875
129.9375
131.0
130.6875
129.5
127.0
122.6875
116.8125
111.4375
106.1875
102.1875
99.75
97.25
97.125
97.9375
97.0625
97.1875
97.1875
96.0
96.125
95.9375
95.0
94.625
94.0625
93.375
92.3125
91.1875
90.5625
90.0625
89.3125
87.875
87.0
87.0625
88.0625
92.0625
99.0
107.375
115.8125
122.4375
127.25
129.8125
130.4375
129.8125
127.875
124.625
119.875
114.0625
108.0
103.25
99.9375
97.5
96.25
96.1875
96.875
97.0625
96.6875
96.0625
95.9375
95.625
95.25
94.375
93.5625
93.8125
92.5
91.125
90.4375
89.625
88.6875
87.625
87.0
86.75
86.875
87.0
89.875
95.6875
102.875
111.1875
118.125
122.75
125.625
126.75
125.6875
123.375
120.25
116.1875
110.3125
103.6875
100.1875
97.75
95.125
94.8125
95.1875
94.625
93.625
93.4375
92.0
91.625
92.8125
93.3125
93.8125
93.0
92.6875
91.375
92.25
88.875
83.625
89.0
87.875
84.125
85.8125
83.5
84.5
91.75
95.5
102.1875
112.9375
119.375
123.1875
124.875
125.8125
125.6875
122.875
119.6875
115.0625
109.625
104.0625
99.1875
96.625
95.3125
94.875
94.5625
94.5625
94.5625
94.3125
93.9375
93.4375
92.8125
92.8125
92.6875
92.0625
91.375
90.375
89.4375
88.625
87.9375
87.25
86.3125
85.4375
84.8125
84.875
86.5625
90.875
97.75
106.0625
114.1875
120.8125
125.25
127.375
127.6875
126.75
124.5625
121.0625
116.25
110.75
105.4375
100.6875
97.375
95.375
95.75
95.375
94.5625
95.25
94.9375
94.625
94.375
93.4375
93.25
93.25
92.8125
92.0
91.125
90.5
89.125
88.3125
87.75
86.5
86.3125
85.5
85.25
87.375
91.0625
98.375
107.875
114.75
121.1875
126.625
128.3125
128.5
128.0
125.6875
122.5
117.5625
112.375
106.0625
100.8125
98.3125
97.375
95.9375
95.4375
96.0625
95.9375
95.9375
95.6875
95.125
94.375
94.125
93.1875
95.125
94.8125
88.3125
91.5625
91.8125
88.5625
89.3125
87.9375
86.25
86.4375
87.0625
89.625
95.5
103.75
113.0
121.25
126.3125
129.25
131.5
131.6875
130.0
127.5
123.8125
118.875
113.0
107.25
102.9375
100.125
98.5625
97.875
97.75
97.625
97.3125
97.125
97.0
96.75
96.4375
96.0625
95.5
94.625
93.6875
92.6875
91.625
90.8125
90.375
89.8125
88.75
87.6875
86.9375
88.25
91.625
97.5
106.1875
114.9375
121.9375
126.9375
129.9375
130.625
130.5625
129.4375
127.0625
122.375
115.5625
109.6875
104.5
100.625
98.3125
97.5
97.375
97.0625
96.75
96.625
96.375
96.125
95.875
95.6875
95.3125
94.75
94.125
93.3125
92.1875
91.0
90.125
89.625
88.75
87.8125
87.0625
86.3125
86.6875
89.625
94.9375
101.9375
109.8125
115.9375
122.4375
127.875
127.0
125.6875
124.625
121.625
117.25
112.0625
106.625
101.3125
97.75
96.5
95.4375
94.875
94.9375
94.875
94.75
94.5625
94.0
93.625
93.375
92.6875
92.25
91.9375
90.8125
90.0625
89.625
88.4375
87.5625
87.125
86.0
85.25
85.4375
86.125
88.9375
95.4375
102.9375
111.25
118.25
122.9375
125.75
126.0
125.75
123.125
119.875
118.0625
112.4375
105.5
101.9375
98.5
95.0
92.9375
93.3125
95.25
96.3125
93.5
93.125
94.375
94.0625
94.0
92.5
92.0
92.0
91.1875
91.375
90.0
86.75
87.0625
87.6875
85.9375
85.25
85.0625
86.3125
90.0
96.5625
105.0
112.875
120.0
124.9375
127.3125
128.125
127.0
124.9375
122.0625
117.4375
111.9375
106.25
101.625
98.625
96.9375
96.5
95.9375
95.0
95.8125
95.5625
94.25
94.5
94.1875
93.625
93.8125
93.625
92.6875
91.6875
90.875
89.875
89.0
88.1875
87.625
86.625
85.9375
85.9375
86.9375
90.8125
97.5
105.75
114.0625
121.0
125.875
128.5
129.125
128.3125
126.125
122.875
118.375
112.75
106.9375
102.1875
99.0
97.125
96.25
96.0625
96.125
96.125
96.0
95.875
95.5625
95.25
94.875
94.4375
93.875
93.1875
92.375
91.3125
90.375
89.75
89.125
88.125
87.0625
86.5625
86.75
88.875
94.375
102.375
111.25
119.5
125.625
129.5625
131.4375
131.625
130.5625
128.4375
125.125
120.375
114.375
108.375
103.625
100.4375
98.5625
97.9375
97.875
97.875
97.75
97.375
97.0625
96.8125
96.375
96.0
95.5625
94.8125
94.125
93.1875
92.1875
91.3125
90.625
89.8125
88.625
87.6875
87.3125
87.9375
90.9375
96.9375
105.0625
113.5625
120.9375
126.4375
129.6875
131.1875
130.9375
129.3125
126.625
122.4375
116.875
110.625
105.125
101.125
98.5625
97.4375
97.125
97.0625
97.0
96.875
96.75
96.4375
96.125
95.75
95.4375
94.875
94.1875
93.375
92.4375
91.3125
90.375
89.625
88.875
87.75
86.875
86.625
86.875
88.875
93.9375
100.9375
108.8125
116.1875
121.875
125.3125
126.8125
126.5625
124.875
122.0
118.0
112.5625
106.625
101.625
98.25
96.125
95.1875
94.8125
94.8125
94.75
94.5625
94.3125
94.125
93.6875
93.3125
93.125
92.625
91.9375
91.25
90.3125
89.3125
88.4375
87.8125
87.0625
86.0625
85.375
85.25
85.75
88.5
94.125
101.5
109.75
116.875
122.1875
125.3125
126.4375
125.9375
124.1875
121.25
117.125
111.6875
106.0
101.375
98.125
96.0625
95.1875
94.8125
94.625
94.5
94.3125
94.125
93.875
93.4375
93.25
92.9375
92.375
91.75
90.875
89.875
89.0625
88.4375
87.6875
87.0625
86.25
85.8125
85.3125
86.0
89.6875
95.75
103.75
112.3125
119.25
124.1875
127.0625
128.0
127.5
125.5
122.4375
118.25
112.625
106.8125
101.9375
98.375
96.5625
95.6875
95.125
95.0625
95.125
94.8125
94.4375
94.375
94.5
94.0625
93.3125
93.4375
93.0625
91.6875
91.0
89.9375
88.375
87.875
87.8125
86.375
85.625
86.0625
86.625
89.8125
96.5
105.25
113.375
120.125
125.3125
128.4375
129.3125
127.875
125.75
123.125
118.8125
113.25
107.8125
102.8125
99.125
97.375
96.5
96.0
95.9375
95.8125
95.625
95.5625
95.4375
95.125
94.75
94.375
93.9375
93.25
92.3125
91.375
90.4375
89.625
89.1875
88.5
87.5
86.6875
86.625
88.4375
93.4375
101.0625
110.1875
118.6875
125.0625
129.25
131.375
131.4375
130.25
128.125
124.875
120.25
114.4375
108.5625
103.8125
100.5625
98.5
97.8125
97.6875
97.5625
97.4375
97.3125
97.1875
97.0
96.5
95.875
95.3125
94.875
94.25
93.25
92.0
91.25
90.75
89.8125
89.0625
87.875
87.0
87.8125
90.9375
96.8125
104.6875
113.25
120.9375
126.5
129.875
131.375
131.3125
129.75
126.9375
122.9375
117.375
111.0
105.375
101.25
98.625
97.375
97.0
97.0
96.9375
96.8125
96.6875
96.5
96.3125
96.0
95.5
94.9375
94.4375
93.625
92.625
91.5
90.4375
89.8125
89.125
87.75
86.9375
87.375
86.75
87.25
94.875
101.1875
108.75
117.0
121.875
125.9375
127.8125
127.5
125.6875
122.8125
119.125
113.8125
107.375
102.375
99.0
96.75
95.6875
95.4375
95.375
95.3125
95.1875
94.9375
94.5625
94.1875
93.875
93.5
93.125
92.5625
91.75
90.75
89.6875
88.9375
88.375
87.6875
86.6875
85.875
85.6875
86.125
88.6875
94.125
101.5625
109.75
117.0625
122.375
125.5625
126.8125
126.375
124.625
121.875
117.8125
112.375
106.5
101.6875
98.3125
96.25
95.3125
95.0
94.875
94.8125
94.625
94.375
94.1875
93.875
93.625
93.25
92.75
92.1875
91.4375
90.4375
89.4375
88.5625
88.0
87.25
86.25
85.625
85.5625
86.4375
89.8125
96.125
104.25
112.625
119.75
124.75
127.625
128.625
127.875
125.9375
123.0
118.75
113.125
107.125
102.25
98.8125
96.75
95.875
95.5625
95.4375
95.4375
95.375
95.1875
95.0
94.75
94.375
94.0
93.5
92.8125
91.9375
90.875
89.875
89.0625
88.375
87.5625
86.625
86.0625
86.0
87.0
90.5625
97.0
105.0
113.3125
120.375
125.375
128.1875
129.0625
128.5
126.625
123.625
119.375
113.75
107.6875
102.6875
99.25
97.125
96.1875
95.875
95.875
95.8125
95.6875
95.5
95.3125
95.0625
94.8125
94.4375
94.0
93.375
92.5625
91.5625
90.625
89.8125
89.125
88.3125
87.25
86.6875
86.875
88.9375
94.25
102.25
111.3125
119.5
125.8125
129.75
131.625
131.9375
130.8125
128.625
125.375
120.625
114.6875
108.6875
103.75
100.4375
98.6875
97.8125
97.875
98.0
97.75
97.875
97.5625
97.1875
96.8125
96.3125
95.9375
95.125
94.1875
93.375
92.1875
91.25
90.6875
89.9375
88.875
87.875
87.5625
88.3125
91.625
97.8125
106.0625
114.625
121.9375
127.3125
130.5
132.0
131.6875
130.0
127.125
123.125
117.625
111.25
105.75
101.75
99.25
98.0625
97.6875
97.5
97.4375
97.3125
97.0625
96.8125
96.5625
96.25
95.875
95.375
94.6875
93.875
92.8125
91.6875
90.6875
89.9375
89.125
88.0
87.0625
86.75
87.0625
89.375
94.5625
101.875
109.875
117.25
122.8125
126.125
127.375
127.0
125.3125
122.4375
118.3125
112.75
106.6875
101.75
98.375
96.25
95.4375
95.25
95.1875
95.0
94.8125
94.6875
94.5
93.875
93.75
93.75
92.875
92.25
91.4375
90.0625
89.125
89.3125
88.8125
87.25
86.625
86.0
85.4375
86.3125
89.5
95.1875
102.75
110.8125
117.625
122.8125
125.9375
126.75
125.8125
123.75
120.75
116.25
110.625
104.875
100.5
97.4375
94.3125
92.6875
96.625
95.0625
96.6875
94.5
91.25
95.125
96.25
93.125
91.4375
93.1875
91.75
89.8125
89.125
88.0625
87.25
87.875
88.1875
86.9375
85.375
85.375
86.3125
89.8125
96.5625
104.75
113.0625
120.125
125.0625
127.5625
128.1875
127.0625
124.8125
121.6875
117.0625
111.3125
105.625
101.0625
97.875
96.3125
95.625
95.3125
95.3125
95.25
95.25
95.0625
94.125
94.0
93.8125
93.3125
92.75
92.1875
91.625
90.375
89.4375
89.0625
88.3125
87.4375
86.5625
85.875
85.8125
87.0625
91.0
97.875
106.25
114.375
121.0
125.625
128.0625
128.5625
127.4375
125.25
122.1875
117.625
111.8125
105.8125
100.9375
97.8125
96.125
95.25
95.0625
95.25
95.5625
95.4375
94.9375
94.875
94.6875
94.5
94.1875
93.625
92.8125
91.9375
90.8125
89.5625
89.1875
88.5625
87.6875
86.6875
86.0
86.5625
89.1875
95.0625
103.375
112.4375
120.4375
126.25
129.5625
131.125
131.0625
129.875
127.0625
123.8125
118.6875
112.5625
106.875
101.9375
99.625
98.125
97.25
97.625
97.4375
97.4375
97.375
97.0625
96.75
96.25
95.875
95.125
94.25
93.5
92.5
91.5
90.6875
90.125
89.5
88.25
87.375
87.3125
88.5
92.6875
99.875
108.5625
117.0
123.9375
128.8125
131.4375
132.125
130.25
128.125
127.9375
122.625
114.75
109.4375
104.5625
100.9375
99.3125
97.6875
97.0
96.4375
89.5625
87.0
99.5625
101.125
97.25
109.0
123.0
80.625
73.5
101.75
92.9375
92.4375
95.5
90.9375
86.75
84.0
84.8125
90.0
91.5
90.8125
94.75
100.75
108.625
119.375
123.375
125.3125
127.5625
126.25
124.6875
123.3125
118.9375
112.375
101.625
96.0
100.125
97.625
92.5
95.0625
95.5625
92.875
95.125
95.1875
93.625
93.6875
92.0
91.3125
93.25
93.5
92.0625
89.875
88.0
88.0
88.375
87.125
86.4375
85.8125
85.625
87.125
89.4375
95.8125
107.1875
114.625
118.4375
122.125
125.4375
127.125
124.8125
123.5625
118.125
105.5625
110.9375
109.6875
99.3125
98.625
96.125
95.0625
95.1875
93.5
91.3125
94.0
93.5625
88.0
82.625
82.75
91.9375
107.5625
106.625
84.1875
82.25
88.875
88.0625
83.125
86.9375
91.875
86.3125
85.8125
98.25
93.75
92.6875
105.5625
107.4375
124.125
140.0625
129.875
124.4375
124.0625
122.75
117.25
108.25
105.9375
104.6875
103.3125
100.0625
96.375
99.625
95.875
89.25
96.9375
98.8125
91.4375
91.8125
93.3125
92.4375
91.5
87.4375
85.0625
95.125
87.3125
88.625
95.25
92.625
92.25
93.3125
95.0
88.0625
78.5
88.25
97.875
105.4375
114.4375
121.6875
126.5
127.875
128.25
126.3125
123.75
123.25
121.75
115.25
107.0
96.75
83.5625
86.625
98.875
101.5
99.6875
97.875
95.75
94.875
93.5625
93.8125
94.0625
93.1875
91.75
90.375
93.6875
92.8125
88.8125
88.3125
87.625
86.625
86.0
86.0625
87.1875
89.6875
95.9375
106.4375
114.1875
120.1875
126.25
128.625
129.875
129.8125
127.4375
124.25
120.0
115.1875
109.125
103.6875
100.4375
98.0625
96.8125
96.9375
97.125
95.1875
96.875
97.1875
96.3125
96.5625
95.8125
95.0625
94.75
94.3125
93.3125
91.5
90.625
89.1875
87.8125
88.4375
87.875
86.9375
87.0
88.3125
93.3125
101.0625
109.75
118.0625
124.6875
128.625
130.6875
131.0625
129.875
127.75
124.4375
119.6875
113.6875
108.0
103.5
99.875
98.125
97.1875
97.1875
97.125
97.125
97.125
96.875
96.5625
96.125
95.5
95.8125
95.8125
94.4375
93.625
91.5
85.1875
85.625
91.8125
91.25
89.0625
86.875
86.3125
88.875
93.25
101.625
110.25
116.9375
123.125
126.25
128.4375
129.25
127.3125
124.8125
120.8125
115.4375
109.625
104.0625
100.0625
98.0625
96.25
95.6875
96.125
95.9375
96.4375
96.375
95.125
93.375
93.875
95.8125
94.9375
92.9375
91.75
91.75
91.5
89.5
88.3125
88.1875
87.6875
86.5
85.75
86.6875
88.6875
93.375
101.875
109.8125
116.8125
122.9375
126.5
128.1875
127.3125
124.75
123.25
119.25
113.0625
108.1875
102.8125
98.9375
97.4375
95.75
94.875
94.9375
94.5
94.6875
95.875
96.4375
94.0625
93.0625
93.4375
92.8125
92.8125
91.75
91.0
90.25
89.4375
88.0
87.75
87.1875
85.3125
85.3125
85.3125
88.125
96.875
104.6875
111.4375
119.1875
123.6875
125.5
129.0
129.25
128.1875
123.375
117.3125
112.0625
105.6875
101.625
98.6875
96.125
95.625
95.0
95.75
96.25
95.375
94.5
94.8125
94.3125
93.5
91.8125
91.25
94.875
92.125
89.5
90.4375
88.375
89.75
89.625
86.875
84.8125
84.25
87.625
91.875
97.0625
104.375
113.9375
122.75
125.375
127.1875
129.3125
128.75
126.25
123.0
116.8125
109.0
105.3125
103.0
99.0625
95.625
95.375
95.5
96.0
96.5625
95.375
95.375
95.25
94.75
94.375
94.1875
93.375
91.0
91.375
91.1875
87.125
90.3125
91.5
87.25
86.5625
87.3125
86.5
88.5625
94.375
101.5625
110.6875
118.4375
123.875
127.875
129.5
128.8125
128.0625
126.25
122.5625
117.9375
111.625
105.875
101.8125
98.875
97.25
96.625
96.875
97.4375
96.6875
96.1875
95.6875
95.5
96.0
95.6875
94.8125
94.125
93.4375
92.375
91.25
90.375
89.625
89.0
88.0
87.0
86.8125
87.625
90.6875
97.0
105.0625
113.875
121.875
126.9375
129.9375
131.0625
130.375
128.9375
126.625
123.125
116.8125
109.5625
104.3125
101.5625
98.875
97.375
97.5
96.8125
97.0625
97.4375
96.5625
95.875
96.0
96.0625
95.375
94.6875
94.125
93.25
92.1875
91.3125
90.75
90.0625
88.875
88.0625
87.5
87.0
88.0
91.6875
97.6875
105.25
113.75
120.9375
125.6875
128.3125
128.9375
128.375
127.1875
124.125
118.6875
113.1875
107.5
102.375
99.25
97.0625
96.4375
96.3125
96.0
96.375
95.9375
95.8125
96.0
94.375
94.375
94.875
94.25
93.1875
91.375
91.1875
92.25
90.1875
87.8125
88.0625
86.9375
85.5
86.4375
88.875
91.9375
97.875
106.9375
115.25
121.5
126.5
129.25
128.5625
126.5625
125.0625
122.1875
117.0625
109.9375
105.3125
102.625
97.3125
94.375
95.75
96.5625
95.375
95.375
95.75
94.9375
94.1875
95.0
97.125
95.625
92.25
92.375
92.8125
90.5
88.75
88.6875
88.125
87.1875
85.8125
83.75
84.6875
89.25
92.0625
100.3125
113.1875
118.9375
122.0
125.875
128.6875
129.875
128.5625
125.3125
121.125
115.5625
109.3125
103.875
100.375
98.625
97.5625
96.3125
95.125
95.5625
96.375
94.9375
93.875
94.1875
95.5
95.4375
94.25
94.25
92.5
90.6875
90.6875
89.8125
88.5625
87.75
87.25
86.9375
86.625
86.4375
88.5
93.875
101.4375
109.875
117.75
123.75
128.1875
129.875
129.5
128.0
125.0625
121.375
116.25
110.3125
104.8125
100.625
97.9375
96.4375
96.0625
96.125
96.1875
96.125
95.9375
95.5
95.3125
95.3125
94.875
94.125
93.5625
92.875
92.5
90.6875
88.6875
89.125
88.3125
87.75
87.3125
86.5
86.9375
89.6875
95.0
102.75
111.5
119.25
125.25
129.25
131.0
130.8125
129.3125
126.75
122.875
117.25
110.6875
104.75
100.5
97.5625
96.125
96.3125
96.375
96.0625
96.875
96.75
94.9375
95.6875
95.5
94.9375
94.6875
93.5625
92.875
92.0625
90.75
89.8125
89.0
88.375
87.75
87.0625
86.9375
87.25
89.125
93.875
101.1875
109.9375
118.0625
124.375
128.1875
129.8125
129.5625
127.875
125.0625
121.0625
115.6875
109.4375
103.6875
99.5625
96.9375
95.875
95.625
95.3125
95.3125
95.3125
95.1875
94.9375
94.3125
94.0625
93.8125
93.1875
92.5625
91.875
91.0
90.0
89.0625
88.4375
87.8125
86.75
85.875
85.625
86.375
89.125
94.625
102.3125
110.0625
117.8125
123.875
126.8125
128.5625
128.6875
127.1875
124.375
120.25
115.0
109.125
103.875
99.625
97.375
96.3125
95.75
95.9375
96.125
95.625
95.3125
95.125
94.625
94.5625
94.125
93.4375
93.0
92.0
91.1875
90.3125
89.3125
88.75
88.0
86.8125
86.125
86.375
87.75
91.25
97.4375
105.8125
114.25
121.375
126.375
128.8125
131.8125
130.875
127.25
124.9375
121.0625
114.9375
108.875
103.75
100.25
98.5
96.6875
96.6875
97.125
96.0625
96.0625
96.5
96.25
95.8125
95.5625
95.375
94.625
93.9375
93.0625
91.9375
90.875
90.1875
89.6875
88.8125
87.75
86.875
87.0625
89.3125
93.5625
101.0625
109.875
117.5625
124.1875
128.25
129.6875
130.25
129.0625
125.9375
122.875
118.5
112.5
106.6875
102.125
98.8125
96.8125
97.8125
97.4375
96.3125
96.5625
95.0625
98.9375
98.9375
93.875
94.125
95.125
94.3125
93.875
92.75
92.0625
91.125
90.25
89.625
87.5625
85.5625
86.625
89.125
92.9375
99.625
109.9375
119.25
124.0
128.125
130.25
131.1875
132.625
131.5625
126.8125
121.0625
114.0625
107.25
104.125
103.0
99.5
95.875
97.0625
96.6875
94.4375
100.875
100.625
94.875
95.1875
94.875
93.375
93.9375
92.9375
91.5625
93.25
91.8125
91.625
92.125
87.1875
85.75
88.625
87.0625
87.375
91.5625
96.9375
103.5
110.9375
118.6875
124.375
126.5625
126.5
125.5625
123.4375
120.4375
114.8125
107.0
104.125
104.625
97.3125
94.9375
95.75
93.8125
94.3125
92.25
88.1875
91.3125
97.375
97.875
95.0
95.1875
90.8125
90.0625
92.5
90.125
87.0625
87.0
91.0
88.5625
83.125
85.0
85.5
86.125
90.75
97.125
104.5625
112.6875
119.125
123.5
125.375
125.25
124.1875
122.0625
118.625
113.875
107.9375
102.5625
98.4375
95.5625
94.9375
95.1875
94.25
94.625
94.8125
94.0625
93.5625
92.625
93.4375
93.125
91.5625
91.3125
91.1875
89.6875
87.75
88.625
88.875
87.3125
86.3125
84.625
84.3125
85.875
87.5
91.875
99.0
107.1875
114.9375
121.0625
125.0625
126.5625
126.625
125.25
122.5
118.875
113.875
107.9375
102.4375
97.875
96.4375
96.375
94.875
94.25
94.375
94.875
96.25
97.125
92.0625
85.25
89.4375
94.5
91.5
88.0625
90.8125
96.25
93.75
88.4375
86.75
86.5625
87.375
86.5625
83.875
87.3125
93.9375
95.9375
101.6875
110.125
113.3125
123.0
129.75
128.1875
132.0625
129.8125
117.125
110.5625
107.1875
104.0
102.9375
97.3125
95.0625
100.25
102.8125
108.375
115.3125
112.8125
96.4375
62.0625
65.4375
97.9375
101.875
95.3125
88.6875
86.0625
87.9375
88.0625
88.375
88.875
87.0
86.0625
86.0625
86.5625
90.125
97.0
105.6875
113.9375
121.3125
126.6875
128.875
129.5
128.9375
126.9375
124.25
119.6875
114.5
108.9375
103.875
99.25
97.5
98.3125
96.75
94.4375
95.4375
96.75
96.375
95.9375
95.4375
94.9375
95.8125
96.375
95.1875
93.5
92.125
91.3125
90.9375
91.125
89.125
86.0625
86.625
85.375
89.5
98.5
103.375
110.6875
120.125
124.625
128.4375
131.75
130.5625
131.0625
129.375
124.625
120.5
112.4375
101.5625
97.4375
97.75
95.375
95.375
94.375
95.5625
100.5
98.75
96.5
96.5
96.25
99.5
99.25
96.25
95.1875
92.0625
89.9375
89.0
87.6875
89.4375
89.5625
87.4375
86.0
84.6875
86.4375
93.25
98.125
106.0
114.8125
118.4375
120.4375
122.625
127.25
129.1875
121.4375
113.6875
106.8125
102.1875
101.5625
101.6875
104.9375
105.375
101.25
91.625
79.1875
89.25
103.75
94.5625
92.1875
94.5625
87.5625
83.6875
84.25
90.6875
88.25
82.125
88.8125
92.625
91.0625
86.5
85.625
89.125
89.6875
89.625
105.375
125.125
96.625
75.375
119.0
125.375
117.375
124.9375
122.6875
118.5
114.6875
109.4375
104.0
99.375
96.25
94.5
93.5
93.125
92.9375
92.75
92.5625
92.375
92.1875
92.0
91.75
91.4375
91.0
90.375
89.625
88.6875
87.75
87.0625
86.4375
85.75
84.75
84.125
83.9375
84.6875
87.75
93.5625
101.25
109.375
116.1875
121.0625
123.9375
124.625
123.75
121.75
118.625
113.6875
109.125
104.8125
98.9375
95.75
94.375
93.8125
94.0
93.75
93.5625
93.25
93.0
92.6875
92.3125
92.5
91.5625
92.0625
90.875
89.625
89.375
87.625
87.125
87.125
86.125
84.75
83.3125
84.0
86.1875
89.4375
95.4375
103.8125
111.875
118.25
122.8125
125.375
126.8125
125.3125
120.125
117.8125
115.25
108.4375
103.125
99.25
95.625
95.0
94.9375
94.3125
94.4375
94.0
93.6875
93.5
93.0625
92.8125
92.5625
92.25
91.875
91.25
90.375
89.375
88.5
87.9375
87.3125
86.4375
85.4375
84.9375
85.1875
87.4375
92.8125
100.5625
109.1875
116.9375
122.75
126.3125
127.6875
127.5
126.0
123.5625
120.125
115.3125
109.4375
104.1875
100.1875
97.5
96.1875
95.75
95.625
95.5
95.6875
95.8125
95.8125
94.1875
94.3125
95.4375
94.125
93.5
92.3125
91.4375
89.9375
89.25
90.1875
87.625
86.0
85.9375
86.1875
86.25
88.1875
98.125
110.125
118.25
123.6875
127.75
133.6875
137.625
131.4375
124.1875
123.5
117.8125
110.875
107.125
102.8125
99.1875
98.5
98.1875
97.5
96.75
96.75
97.1875
96.875
95.8125
94.4375
94.0625
94.6875
94.0
93.3125
93.625
91.9375
89.9375
89.9375
89.125
87.375
86.0
85.5
86.5625
87.25
90.6875
98.5625
103.5
110.375
118.3125
122.5625
124.5625
125.0
123.625
120.875
117.4375
112.6875
107.1875
102.25
98.0625
95.0625
94.75
94.5
94.25
94.6875
93.875
93.3125
93.125
92.875
92.75
92.25
91.6875
91.125
90.5625
89.75
88.6875
87.8125
87.3125
86.5
85.3125
84.875
84.75
84.5625
86.25
90.375
96.875
104.625
112.0
117.75
121.3125
123.0
122.8125
121.3125
118.8125
114.9375
110.0625
104.6875
100.0
96.75
94.375
93.375
93.1875
92.75
92.625
92.8125
92.6875
92.0625
91.6875
91.5625
91.1875
90.8125
90.5
89.375
88.0625
87.125
87.4375
87.375
86.125
85.1875
84.5625
84.4375
84.625
86.6875
92.4375
100.0625
108.125
115.625
120.9375
123.6875
124.375
123.5
121.5
118.6875
114.6875
109.4375
104.0625
99.8125
96.75
94.75
93.8125
93.4375
93.5
93.625
93.5
93.0625
92.5
92.3125
92.125
91.625
91.1875
90.625
89.5625
88.6875
88.25
87.9375
87.3125
86.1875
85.25
84.5
84.4375
85.6875
89.3125
95.5
103.5
112.0625
118.625
122.6875
124.625
125.8125
126.0
122.9375
119.25
115.625
109.0
103.0
98.3125
96.3125
99.0625
96.9375
94.5625
94.5625
93.3125
94.0
94.375
93.625
93.25
93.25
92.6875
92.5625
91.8125
90.6875
89.875
88.875
88.1875
87.625
86.75
85.75
85.375
85.6875
87.5625
92.625
100.4375
109.0
116.25
122.25
126.1875
127.5625
127.375
126.1875
123.9375
120.4375
115.5625
109.8125
104.3125
100.25
97.625
96.25
95.875
95.9375
95.9375
96.0
95.875
95.5625
95.25
94.9375
94.5
93.9375
93.3125
92.3125
91.875
91.25
90.1875
90.0
89.0625
87.5625
86.625
86.25
88.3125
92.75
100.0
109.1875
117.4375
124.375
129.125
131.0
131.375
130.1875
127.75
124.6875
120.5625
115.1875
108.8125
103.625
100.875
98.75
97.5
97.5
97.5625
97.5
97.3125
96.875
96.75
96.5625
96.0625
95.5625
95.1875
94.5
93.5
92.4375
91.4375
90.4375
89.625
88.6875
87.5
86.8125
86.9375
87.9375
91.375
97.5
105.125
112.8125
119.0
123.125
125.4375
125.75
124.5
122.25
118.625
113.8125
108.25
103.0625
99.125
96.625
95.375
94.8125
94.75
94.625
94.5
94.125
93.875
93.5
93.375
93.3125
92.75
92.4375
91.6875
90.5
89.6875
88.5
87.8125
87.125
86.0
85.25
85.125
85.375
87.125
91.4375
98.0625
105.75
113.125
118.6875
122.1875
123.8125
123.5625
122.0
119.375
115.4375
110.375
104.6875
99.9375
97.0
95.0
93.75
93.5
93.4375
94.0
93.6875
92.75
93.0625
92.8125
92.3125
91.75
91.4375
91.125
90.1875
89.4375
88.5625
87.75
87.25
86.5625
85.5625
84.625
84.625
85.3125
87.875
93.625
101.3125
109.4375
116.5
121.5
124.1875
124.75
124.125
122.3125
119.0625
114.75
109.5625
104.125
99.625
96.6875
95.0
94.4375
94.3125
94.3125
94.25
94.0625
93.75
93.4375
93.125
92.8125
92.4375
91.9375
91.3125
90.625
89.6875
88.75
88.0625
87.4375
86.5625
85.6875
85.1875
85.1875
86.375
90.25
96.875
105.0
113.1875
119.75
124.125
126.3125
126.5
125.125
122.75
119.5
115.0625
109.6875
104.25
100.125
97.375
95.75
95.25
95.0625
94.75
94.9375
94.875
94.5625
94.5
94.25
93.6875
93.4375
93.0
92.0625
91.125
90.3125
89.25
88.75
88.1875
87.0625
86.25
86.0
86.3125
88.8125
94.4375
102.0625
110.6875
118.4375
123.875
127.3125
128.625
128.0625
126.625
124.125
120.5
115.625
109.9375
104.75
100.875
98.375
97.3125
96.8125
96.6875
96.875
96.8125
96.5625
96.3125
96.125
95.75
95.375
94.8125
94.1875
93.5625
92.5625
91.5
90.75
90.0625
89.125
88.0625
87.4375
87.3125
89.25
94.3125
101.875
110.75
119.3125
125.75
129.6875
131.5625
131.6875
130.75
128.3125
125.0
120.375
114.625
108.625
104.0625
100.9375
99.0
98.3125
98.0625
97.9375
98.125
98.0625
97.9375
97.4375
97.125
96.9375
96.3125
95.5625
94.8125
93.75
92.6875
91.75
91.0
90.1875
89.1875
88.125
87.5
87.625
89.125
93.1875
99.6875
107.5
115.0
120.875
124.5625
126.3125
126.3125
124.75
122.1875
118.3125
113.25
107.4375
102.1875
98.875
96.625
95.5625
95.5625
95.4375
95.3125
95.25
94.875
94.5625
94.1875
93.875
93.5
93.125
92.5
91.875
91.0
89.9375
89.125
88.4375
87.5
86.75
85.9375
85.75
86.125
88.3125
93.0
100.0625
108.25
115.0
120.3125
123.8125
124.875
124.3125
122.4375
119.125
115.125
109.75
104.3125
100.0
97.0
95.375
94.5625
94.3125
94.3125
94.1875
94.125
93.875
93.5625
93.3125
93.0625
92.5625
92.0625
91.5
90.625
89.6875
88.8125
88.0625
87.5625
86.8125
85.75
85.125
85.375
86.5625
90.0
96.1875
104.0
112.0
118.5625
123.0
125.3125
125.8125
124.5625
122.25
118.8125
114.0625
108.5
103.25
99.375
96.8125
95.625
95.1875
95.0625
95.125
95.0
94.625
94.25
93.875
93.625
93.3125
92.9375
92.5
91.75
90.8125
89.9375
89.125
88.5
87.875
87.0
86.0625
85.6875
85.9375
87.6875
92.5
99.625
108.0
115.875
121.8125
125.5
126.9375
126.5
124.75
122.1875
118.8125
114.0
108.4375
103.3125
99.375
97.1875
95.8125
95.5625
95.5
95.4375
95.3125
95.125
95.1875
95.0625
94.5
94.0625
93.625
93.0
92.3125
91.4375
90.4375
89.5625
88.9375
88.0625
87.125
86.375
86.125
87.0625
90.375
96.625
104.8125
113.25
120.3125
125.1875
127.875
128.75
128.125
126.3125
123.5
119.375
114.0
108.0625
103.125
99.625
97.625
96.875
96.875
96.9375
97.0625
97.0
96.6875
96.375
96.0625
95.8125
95.4375
94.9375
94.125
93.125
92.0625
91.1875
90.5
89.875
89.0
87.875
87.4375
88.0
91.0625
97.25
105.5
114.3125
122.0
127.5625
130.9375
132.1875
131.9375
130.4375
127.8125
124.0625
119.0
112.9375
107.4375
103.375
100.75
99.4375
99.0
98.9375
98.9375
98.8125
98.4375
98.0
97.6875
97.375
97.0
96.5625
95.8125
94.8125
93.75
92.6875
91.9375
91.25
90.25
89.125
88.25
87.875
88.3125
90.6875
95.9375
103.125
111.0625
118.0625
123.1875
126.1875
127.25
126.625
124.75
121.75
117.375
111.8125
106.0625
101.4375
98.25
96.4375
95.875
95.8125
95.8125
95.6875
95.5
95.25
95.0
94.625
94.25
93.9375
93.4375
92.6875
91.6875
90.6875
89.6875
88.875
88.4375
87.625
86.625
86.3125
86.4375
87.0625
90.0625
95.8125
103.375
111.25
117.8125
122.375
124.8125
125.25
124.125
121.75
118.375
113.8125
108.125
102.875
98.9375
96.3125
95.0625
94.5625
94.5
94.5625
94.5
94.3125
93.75
93.375
93.1875
93.0
92.6875
92.1875
91.375
90.25
89.1875
88.4375
87.9375
87.3125
86.625
85.875
85.25
85.625
87.875
92.625
99.625
107.625
114.875
120.3125
123.6875
125.125
125.0
123.4375
121.0
117.375
112.375
106.875
102.0
98.3125
96.3125
95.25
94.75
94.9375
95.0
94.75
94.375
94.125
93.75
93.375
93.125
92.8125
92.4375
91.3125
90.1875
89.25
88.5
88.25
87.625
86.5625
85.8125
85.625
86.25
89.25
95.375
103.4375
111.9375
119.125
124.0625
126.8125
127.5625
126.625
124.5625
121.5
117.125
111.5625
105.875
101.25
98.0625
96.3125
95.6875
95.5
95.5
95.5625
95.375
95.0625
94.8125
94.5625
94.25
93.9375
93.5625
92.9375
92.125
91.0625
90.1875
89.5
88.8125
87.875
86.8125
86.1875
86.3125
87.75
92.25
99.4375
107.8125
115.8125
122.125
126.125
127.9375
128.125
126.875
124.5625
121.25
116.75
111.0
105.5625
101.5
98.5625
97.1875
96.75
96.5625
96.8125
96.75
96.25
96.0625
96.1875
95.8125
95.1875
94.75
94.375
93.5625
92.5
91.5625
90.8125
90.125
89.25
88.0
87.0625
87.0
88.1875
92.3125
99.6875
108.75
117.5625
124.375
129.0625
131.4375
131.9375
130.8125
128.8125
126.0
121.625
115.9375
109.875
105.0
101.5
99.4375
98.5
98.6875
98.5625
98.0625
98.0
97.8125
97.5
97.375
97.125
96.5
95.9375
95.1875
94.0625
92.9375
91.9375
91.125
90.3125
89.3125
88.3125
87.625
87.625
89.0
92.75
99.125
106.9375
114.5
120.75
124.875
126.875
127.0625
125.8125
123.25
119.6875
114.8125
109.0
103.75
99.875
97.4375
96.1875
95.875
95.9375
95.875
95.6875
95.375
95.0625
94.6875
94.375
94.0
93.5625
92.9375
92.1875
91.3125
90.25
89.4375
88.8125
88.0
87.0625
86.125
85.875
86.125
87.6875
92.0625
98.8125
106.5
113.75
119.375
122.875
124.3125
124.0
122.375
119.625
115.875
110.6875
104.9375
100.25
96.875
94.9375
94.25
94.0625
94.125
94.0625
93.875
93.625
93.3125
93.0
92.6875
92.3125
91.9375
91.375
90.625
89.75
88.75
88.0625
87.4375
86.625
85.625
85.0625
85.0625
85.8125
88.9375
95.0625
102.8125
110.6875
117.625
122.375
124.75
125.375
124.375
122.25
119.0625
114.875
109.5625
104.0625
99.6875
96.75
95.1875
94.75
94.625
94.5
94.4375
94.3125
94.0625
93.8125
93.5625
93.25
92.875
92.3125
91.6875
90.875
89.875
88.875
88.1875
87.5625
86.75
85.875
85.4375
85.6875
87.25
91.5625
98.625
106.9375
114.9375
121.0625
125.0
126.8125
126.9375
125.6875
123.3125
119.875
115.1875
109.5
104.0
100.0
97.375
96.0625
95.625
95.5
95.5
95.375
95.1875
94.9375
94.6875
94.375
94.0
93.5625
93.0
92.375
91.4375
90.4375
89.6875
89.0625
88.375
87.4375
86.625
86.375
86.75
89.1875
94.8125
102.6875
111.1875
118.625
124.125
127.3125
128.5
128.0625
126.25
123.6875
120.125
115.0625
109.3125
104.1875
100.5625
98.25
97.125
96.8125
96.75
96.8125
96.6875
96.375
96.1875
96.0
95.75
95.375
94.875
94.1875
93.3125
92.4375
91.4375
90.5625
89.9375
89.125
87.9375
87.25
87.5
89.5
94.75
102.6875
111.625
119.875
126.1875
130.0625
131.75
131.75
130.375
128.0625
124.75
120.0625
114.125
108.1875
103.625
100.625
99.0
98.5
98.4375
98.5625
98.5
98.375
98.1875
97.8125
97.4375
97.0625
96.4375
95.6875
94.75
93.75
92.625
91.75
91.0625
90.25
89.125
88.1875
87.875
88.25
90.625
95.8125
103.1875
111.25
118.5
123.875
127.0
128.1875
127.6875
126.0
123.1875
119.0625
113.625
107.75
102.875
99.4375
97.5
96.6875
96.5
96.4375
96.3125
96.1875
95.875
95.5625
95.25
94.875
94.5625
94.0
93.3125
92.5
91.5
90.5
89.75
89.0
88.1875
87.1875
86.5
86.375
87.0625
89.875
95.375
102.75
110.5625
117.3125
122.0625
124.6875
125.5
124.625
122.5625
119.4375
114.9375
109.3125
103.8125
99.75
96.9375
95.5
95.0
94.9375
94.8125
94.625
94.4375
94.1875
93.875
93.625
93.3125
92.9375
92.5
91.8125
90.9375
90.0
89.125
88.5
87.75
86.8125
86.0
85.6875
85.875
87.3125
91.6875
98.5625
106.5
114.1875
120.1875
124.0
125.75
125.6875
124.25
121.75
118.1875
113.4375
107.75
102.625
99.0625
96.6875
95.5625
95.25
95.125
95.0
94.875
94.625
94.4375
94.25
93.875
93.5625
93.1875
92.5625
91.8125
90.8125
89.8125
89.0625
88.375
87.625
86.75
86.0625
85.9375
86.4375
88.875
94.375
101.875
110.0625
117.5
122.9375
126.125
127.3125
126.75
125.0625
122.25
118.3125
113.0625
107.25
102.375
99.0625
96.9375
96.0625
95.875
95.75
95.5625
95.5
95.25
95.0
94.75
94.4375
94.0625
93.5
92.8125
92.0
90.9375
90.0
89.375
88.75
88.0
87.0625
86.5
86.5
87.6875
91.4375
97.9375
106.125
114.375
121.1875
125.6875
128.0625
128.625
127.625
125.5625
122.4375
118.25
112.75
107.1875
102.625
99.5625
97.875
97.1875
96.9375
97.0
96.9375
96.8125
96.5625
96.25
95.875
95.625
95.25
94.6875
93.9375
93.0625
92.0625
91.125
90.4375
89.75
88.75
87.8125
87.4375
88.0625
91.125
97.5
106.0
114.875
122.4375
127.6875
130.75
131.875
131.375
129.625
126.75
122.8125
117.5
111.4375
106.0
102.0625
99.5625
98.4375
98.1875
98.375
98.375
98.1875
98.0625
97.8125
97.5
97.25
96.8125
96.1875
95.375
94.375
93.1875
92.125
91.3125
90.625
89.6875
88.625
87.9375
87.9375
89.1875
93.0
99.5625
107.625
115.5625
122.0
126.25
128.4375
128.875
127.75
125.4375
122.0
117.25
111.25
105.5
101.5
98.75
97.1875
96.75
96.8125
96.6875
96.5
96.3125
96.0625
95.75
95.4375
95.0625
94.625
94.0625
93.25
92.25
91.25
90.375
89.5625
88.9375
88.0
87.0
86.5625
86.6875
88.0625
92.125
98.5625
106.25
113.6875
119.625
123.375
125.0625
124.9375
123.375
120.8125
117.125
112.1875
106.625
102.0
98.625
96.5
95.5625
95.125
94.875
94.75
94.5625
94.3125
94.0625
93.75
93.4375
93.125
92.75
92.0625
91.25
90.3125
89.375
88.625
87.9375
87.25
86.3125
85.625
85.5
86.1875
88.8125
94.375
101.8125
109.9375
117.0
121.9375
124.75
125.625
124.875
122.875
119.875
115.75
110.375
104.8125
100.3125
97.25
95.5625
94.9375
94.8125
94.8125
94.6875
94.4375
94.3125
94.0625
93.75
93.5
93.1875
92.625
92.0
91.0625
90.0
89.25
88.5
87.8125
87.0
86.125
85.625
85.75
86.8125
90.875
97.625
105.6875
113.6875
120.1875
124.375
126.375
126.6875
125.5625
123.3125
120.0
115.4375
109.875
104.4375
100.25
97.5
96.125
95.5625
95.375
95.3125
95.1875
95.0
94.75
94.5625
94.375
94.0
93.5625
93.0625
92.3125
91.375
90.3125
89.4375
88.75
88.0
87.1875
86.4375
86.1875
86.5625
88.75
94.0
101.5625
109.9375
117.5
123.1875
126.5625
127.875
127.5625
125.9375
123.4375
119.6875
114.75
109.0
103.625
99.8125
97.5625
96.5
96.25
96.4375
96.5
96.375
96.1875
95.9375
95.625
95.3125
94.9375
94.5
93.8125
93.0
92.0
91.0
90.1875
89.5625
88.625
87.625
86.875
86.9375
88.5625
93.25
100.875
109.6875
118.0625
124.5625
128.625
130.625
130.9375
129.875
127.8125
124.75
120.25
114.4375
108.5
103.75
100.5
98.6875
98.125
98.0
97.9375
97.8125
97.6875
97.5
97.125
96.8125
96.5
96.125
95.5625
94.75
93.625
92.5
91.625
90.875
90.0625
89.0
87.9375
87.5625
88.0
90.5625
96.125
103.625
111.8125
119.125
124.4375
127.5
128.75
128.25
126.5625
123.75
119.5625
114.0625
108.0625
103.0625
99.5625
97.5
96.6875
96.5625
96.5625
96.625
96.375
96.125
95.875
95.5625
95.25
94.75
94.25
93.5625
92.6875
91.625
90.625
89.8125
89.125
88.25
87.25
86.5
86.4375
87.0625
89.5625
94.8125
101.9375
109.625
116.375
121.25
123.9375
124.625
123.75
121.6875
118.5625
114.1875
108.75
103.4375
99.3125
96.6875
95.25
94.75
94.5625
94.5
94.375
94.1875
93.875
93.625
93.25
92.875
92.5
92.0
91.3125
90.5
89.5625
88.75
88.0
87.375
86.5
85.5625
85.1875
85.5
86.9375
91.0625
97.8125
105.875
113.5625
119.5625
123.25
124.9375
124.8125
123.375
120.9375
117.4375
112.75
107.25
102.375
98.8125
96.4375
95.3125
94.875
94.625
94.5
94.375
94.1875
93.9375
93.75
93.5
93.1875
92.8125
92.25
91.5
90.625
89.5625
88.75
88.0625
87.1875
86.3125
85.5625
85.375
85.875
88.3125
93.8125
101.3125
109.625
117.0
122.25
125.3125
126.5625
126.0
123.875
120.9375
117.125
112.25
106.375
101.625
98.5
96.5625
95.5
94.8125
95.0625
95.125
94.625
94.5
94.5625
94.625
94.125
93.8125
93.4375
92.5
91.5625
90.375
89.3125
88.6875
88.0
87.1875
86.375
85.9375
86.0625
87.1875
90.875
97.4375
105.625
113.75
120.375
124.8125
127.0625
127.4375
126.375
124.25
121.0625
116.75
111.1875
105.5625
101.25
98.375
96.75
96.25
96.25
96.25
96.1875
96.0
95.75
95.5
95.25
94.875
94.5
93.9375
93.25
92.375
91.3125
90.4375
89.75
89.0625
88.125
87.125
86.75
87.375
90.25
96.5
104.8125
113.5625
121.125
126.5
129.5
130.625
130.125
128.4375
125.8125
122.125
117.125
111.25
105.8125
101.75
99.1875
97.9375
97.5
97.5625
97.8125
97.8125
97.5
97.1875
96.9375
96.375
95.875
95.4375
94.75
94.0
93.0
91.9375
91.1875
90.4375
89.375
88.1875
87.5
87.625
89.125
93.5
100.5
108.75
116.6875
122.9375
126.875
128.8125
129.0625
128.0
125.625
122.1875
117.4375
111.625
106.0
101.8125
99.0
97.6875
97.1875
97.0
96.9375
96.75
96.5
96.25
96.0
95.6875
95.375
94.875
94.1875
93.4375
92.4375
91.375
90.4375
89.75
89.0
87.9375
86.9375
86.5625
86.75
88.125
92.0625
98.5
106.0625
113.4375
119.25
123.0
124.75
124.5625
123.0
120.25
116.5
111.4375
105.625
100.875
97.75
95.6875
94.625
94.4375
94.4375
94.3125
94.25
94.0
93.6875
93.5
93.25
92.8125
92.375
91.8125
91.0
90.0
89.0
88.3125
87.8125
87.0
85.875
85.25
85.375
85.875
88.5625
94.25
101.75
109.625
116.4375
121.375
124.125
124.875
124.0625
122.0
118.875
114.5625
109.0
103.5
99.3125
96.5625
95.0625
94.5
94.4375
94.4375
94.375
94.1875
93.9375
93.8125
93.3125
92.8125
92.5
92.0625
91.375
90.5625
89.6875
88.8125
88.125
87.4375
86.625
85.8125
85.375
85.375
86.8125
91.0
97.8125
105.9375
113.8125
120.0625
124.0625
125.875
125.875
124.5
122.125
118.6875
114.0625
108.4375
103.25
99.4375
97.0
95.75
95.3125
95.125
95.0625
94.9375
94.6875
94.4375
94.3125
94.0
93.625
93.25
92.6875
91.875
90.9375
89.875
89.0
88.3125
87.625
86.75
85.9375
85.8125
86.375
88.9375
94.5625
102.375
110.875
118.25
123.5625
126.8125
128.0
127.4375
125.5625
122.6875
118.875
113.75
107.75
102.6875
99.1875
96.9375
96.125
96.0
96.0625
96.1875
96.125
95.875
95.625
95.3125
95.0
94.6875
94.25
93.625
92.75
91.75
90.8125
90.0625
89.4375
88.5625
87.5
86.875
87.0
88.8125
93.8125
101.375
110.125
118.4375
124.5625
128.375
130.25
130.5625
129.375
127.1875
124.0
119.5
113.75
108.0
103.5
100.375
98.75
98.1875
98.0
98.0
97.9375
97.8125
97.6875
97.4375
97.0625
96.6875
96.125
95.5
94.625
93.625
92.5625
91.6875
91.0
90.125
88.9375
88.0625
87.875
89.125
93.1875
100.1875
108.625
117.0
123.75
128.1875
130.5625
131.125
130.3125
128.25
125.0
120.5
114.75
108.6875
103.9375
100.6875
98.875
98.3125
98.1875
98.1875
98.0625
97.9375
97.6875
97.4375
97.0625
96.6875
96.25
95.6875
94.875
94.0
93.0
92.0
91.3125
90.5625
89.5625
88.375
87.8125
88.0
89.875
94.5625
101.6875
109.8125
117.25
122.875
126.4375
127.875
127.75
126.3125
123.6875
119.75
114.5
108.625
103.625
100.0625
97.8125
96.8125
96.75
96.75
96.75
96.5625
96.3125
96.0625
95.6875
95.375
95.0625
94.5
93.8125
93.0
92.0
91.0
90.1875
89.5625
88.8125
87.6875
86.75
86.5625
87.25
90.0
95.4375
102.75
110.4375
117.0625
121.6875
124.1875
124.875
124.0
121.9375
118.8125
114.3125
108.75
103.4375
99.4375
96.6875
95.25
94.8125
94.8125
94.875
94.9375
94.75
94.5
94.125
93.75
93.4375
93.0625
92.4375
91.8125
90.9375
90.0
89.125
88.4375
87.875
87.0
85.875
85.25
85.25
86.0
89.0
94.375
101.3125
108.5
114.5625
118.625
120.625
120.875
119.6875
117.3125
113.8125
109.1875
103.9375
99.5
96.25
94.25
93.375
93.125
93.0
92.875
92.6875
92.4375
92.0625
91.8125
91.5
91.125
90.75
90.3125
89.6875
88.875
87.9375
87.1875
86.5625
85.9375
85.0625
84.1875
83.9375
84.0625
85.0625
88.3125
93.9375
100.875
107.9375
113.5625
117.1875
118.8125
118.5625
117.125
114.5625
110.9375
106.1875
101.125
97.0
94.25
92.5625
91.875
91.6875
91.625
91.5
91.3125
91.0
90.6875
90.4375
90.1875
89.875
89.5
89.0625
88.375
87.5
86.6875
86.0625
85.5
84.8125
83.9375
83.3125
83.1875
83.6875
85.9375
90.875
97.8125
105.25
111.9375
116.875
119.6875
120.375
119.75
117.9375
115.0
111.0625
106.0
100.875
97.0625
94.4375
92.9375
92.375
92.25
92.1875
92.1875
92.0625
91.8125
91.6875
91.375
91.0
90.5625
90.125
89.5
88.625
87.625
86.875
86.375
85.75
84.9375
84.0
83.5625
83.75
85.0
88.9375
95.4375
103.3125
111.0
117.0625
120.9375
122.6875
122.625
121.1875
118.75
115.4375
111.0
105.8125
101.0
97.5625
95.3125
94.25
93.875
93.625
93.5
93.375
93.0
92.75
92.375
92.125
91.75
91.375
90.9375
90.0625
89.25
88.3125
87.4375
87.0
86.3125
85.5
84.8125
84.6875
85.25
87.5625
92.75
100.0625
108.125
115.375
120.625
123.75
124.8125
124.25
122.5
119.75
116.0
111.125
105.4375
101.0
97.8125
95.6875
95.0625
94.875
94.8125
94.75
94.625
94.4375
94.1875
93.875
93.5
93.1875
92.75
92.1875
91.375
90.375
89.5625
88.8125
88.1875
87.25
86.1875
85.6875
85.875
87.9375
93.0625
100.625
109.3125
117.3125
123.3125
126.75
128.25
128.125
126.375
124.0625
121.0625
116.6875
111.0625
105.4375
101.3125
98.5625
97.0625
96.5625
96.625
96.6875
96.75
96.5625
95.6875
95.1875
95.125
94.9375
94.375
93.4375
92.8125
92.8125
91.8125
90.5
90.125
89.3125
88.3125
86.8125
85.9375
87.0625
90.0625
95.9375
103.6875
112.5
119.8125
124.25
127.0
127.625
126.5
124.3125
120.75
116.4375
111.25
105.6875
101.1875
98.375
96.9375
96.1875
96.0625
96.0625
96.0
95.875
95.5625
95.25
94.9375
94.625
94.1875
93.5625
92.75
91.875
90.8125
89.8125
89.0
88.375
87.5625
86.625
86.125
86.25
87.125
90.4375
96.375
103.8125
111.4375
117.625
121.6875
123.6875
123.8125
122.4375
120.0625
116.625
112.0
106.5625
101.5
97.875
95.625
94.5625
94.3125
94.25
94.1875
94.0
93.6875
93.4375
93.125
92.8125
92.5
92.1875
91.625
90.9375
90.0
89.0625
88.3125
87.625
86.875
86.0
85.1875
85.0
85.5
87.6875
92.75
99.875
107.875
115.125
120.375
123.4375
124.5
123.9375
122.1875
119.375
115.4375
110.375
104.875
100.4375
97.3125
95.5
94.8125
94.5625
94.5
94.4375
94.25
94.0
93.75
93.5
93.1875
92.75
92.3125
91.75
90.875
89.875
89.0
88.3125
87.6875
86.9375
86.0625
85.5
85.625
86.6875
90.3125
96.8125
104.875
113.0
119.5625
123.9375
126.0625
126.3125
125.125
122.8125
119.5625
115.25
109.875
104.5
100.4375
97.6875
96.1875
95.75
95.5625
95.4375
95.375
95.1875
94.9375
94.6875
94.4375
94.125
93.6875
93.125
92.5
91.5625
90.5
89.5625
88.875
88.1875
87.25
86.375
86.125
86.5
88.375
93.375
100.6875
109.0625
116.8125
122.75
126.3125
127.6875
127.375
125.8125
123.1875
119.625
114.875
109.125
103.875
100.0625
97.6875
96.6875
96.5
96.5625
96.625
96.5625
96.375
96.0625
95.8125
95.5625
95.1875
94.625
94.0
93.25
92.3125
91.3125
90.5
89.875
89.0625
87.9375
87.1875
87.25
88.6875
93.125
100.5
109.3125
117.75
124.3125
128.5
130.625
131.0
129.9375
127.8125
124.75
120.5
114.875
109.0
104.3125
101.0625
99.1875
98.5
98.375
98.375
98.375
98.25
98.0625
97.8125
97.4375
97.0625
96.625
96.0
95.1875
94.25
93.1875
92.3125
91.5625
90.75
89.625
88.625
88.3125
88.8125
91.5
97.25
105.0
113.375
120.6875
125.9375
129.0
130.0625
129.5
127.75
124.875
120.875
115.5
109.5625
104.5625
101.0625
99.0
98.125
98.0
97.9375
97.875
97.75
97.5
97.1875
96.875
96.5625
96.125
95.5625
94.875
93.9375
92.8125
91.75
90.9375
90.25
89.375
88.3125
87.625
87.625
88.3125
91.1875
96.8125
104.3125
112.25
118.9375
123.6875
126.25
126.8125
125.8125
123.6875
120.4375
115.9375
110.375
104.875
100.6875
97.9375
96.5625
96.1875
96.0
95.9375
95.875
95.625
95.375
95.125
94.8125
94.5
94.125
93.5625
92.875
91.9375
90.875
90.0
89.3125
88.5
87.625
86.8125
86.5625
86.8125
88.5
92.9375
99.8125
107.875
115.4375
121.3125
125.0
126.5625
126.4375
124.9375
122.3125
118.6875
113.875
108.125
103.125
99.5625
97.375
96.375
96.0625
96.0
95.9375
95.8125
95.5625
95.3125
95.0625
94.8125
94.5
94.0625
93.4375
92.625
91.6875
90.625
89.6875
89.125
88.375
87.375
86.75
86.6875
87.375
90.375
96.4375
104.375
112.8125
119.9375
125.0
127.6875
128.4375
127.625
125.625
122.625
118.5
113.0625
107.25
102.5625
99.4375
97.5625
96.9375
96.875
96.8125
96.6875
96.5625
96.3125
96.0625
95.75
95.375
95.0
94.4375
93.8125
92.9375
91.875
90.875
90.125
89.4375
88.5625
87.625
87.1875
87.375
88.75
93.0
99.8125
108.1875
116.4375
122.9375
127.1875
129.1875
129.375
128.0625
125.6875
122.3125
117.75
112.0
106.375
102.125
99.25
97.75
97.3125
97.3125
97.4375
97.375
97.25
97.0
96.8125
96.5625
96.25
95.8125
95.1875
94.4375
93.5
92.4375
91.5625
90.9375
90.125
89.125
88.25
88.0625
89.0
92.5625
99.3125
107.9375
116.6875
123.8125
128.6875
131.375
132.1875
131.4375
129.625
126.75
122.625
117.1875
111.0625
105.875
102.1875
100.125
99.4375
99.375
99.3125
99.1875
99.0
98.625
98.3125
98.0
97.6875
97.3125
96.6875
95.875
94.9375
93.8125
92.9375
92.25
91.5
90.4375
89.4375
89.0
89.375
91.6875
97.1875
105.0625
113.6875
121.375
127.0625
130.4375
131.9375
131.75
130.125
127.4375
123.5
118.125
111.875
106.1875
102.1875
99.75
98.75
98.5625
98.625
98.75
98.625
98.5
98.25
97.9375
97.625
97.1875
96.625
95.875
95.0
93.875
92.75
91.875
91.1875
90.25
89.125
88.375
88.1875
88.625
91.0625
96.3125
103.625
111.6875
118.75
123.875
126.75
127.75
127.0
125.0625
122.0625
117.75
112.125
106.3125
101.8125
98.75
97.1875
96.6875
96.5625
96.5
96.4375
96.3125
96.0
95.6875
95.375
95.0
94.625
94.0625
93.3125
92.4375
91.5
90.5
89.75
89.0625
88.25
87.4375
87.0625
87.1875
88.5625
92.5
99.125
107.0625
114.8125
121.0625
125.125
127.0625
127.4375
125.8125
122.6875
119.375
114.9375
108.6875
104.0
100.75
98.0625
96.5625
96.0
96.4375
96.1875
95.5625
95.625
95.75
95.625
95.1875
95.125
94.375
93.5625
92.9375
91.625
90.375
89.8125
89.5
88.6875
87.5
87.0
86.875
87.4375
90.25
95.8125
103.75
112.0625
119.3125
124.75
127.8125
129.0
128.4375
126.3125
123.375
119.3125
113.875
107.9375
102.9375
99.625
97.75
97.0
96.75
96.625
96.625
96.625
96.3125
96.125
95.9375
95.6875
95.375
94.8125
94.1875
93.125
91.875
90.875
90.125
89.5
88.6875
87.9375
87.5
87.5625
88.6875
92.25
98.75
106.8125
115.0625
121.875
126.3125
128.8125
129.3125
128.25
125.9375
122.5
118.25
112.5
106.4375
102.4375
99.3125
97.8125
97.4375
97.125
97.375
97.25
97.0
96.8125
96.5625
96.3125
96.0
95.4375
95.0
94.25
93.0
92.125
91.375
90.8125
90.0625
89.0
88.125
87.8125
88.6875
92.0
98.3125
106.8125
115.5
122.6875
127.875
130.75
131.8125
131.375
129.75
127.1875
123.1875
117.6875
111.5
106.0625
102.125
99.75
98.9375
98.9375
99.125
99.125
99.0625
98.75
98.375
98.0625
97.375
96.6875
96.375
95.5625
94.5625
93.5625
92.6875
92.0
91.1875
90.125
89.125
88.6875
89.125
91.4375
97.0
105.0
113.75
121.5
127.25
130.625
132.0625
131.8125
130.375
127.9375
124.125
118.9375
112.75
107.0625
102.8125
100.1875
99.0
98.75
98.6875
98.6875
98.6875
98.5
98.25
98.0
97.6875
97.3125
96.8125
96.0625
95.125
94.0
92.875
92.0
91.1875
90.3125
89.375
88.625
88.375
88.6875
90.8125
95.6875
102.75
110.6875
117.875
123.125
126.25
127.375
126.8125
124.875
121.9375
117.6875
112.125
106.375
101.8125
98.75
97.1875
96.5625
96.4375
96.4375
96.3125
96.0625
95.75
95.4375
95.1875
94.875
94.4375
93.8125
93.0625
92.125
91.0625
90.1875
89.5625
89.0
88.125
87.1875
86.6875
86.6875
88.0
91.8125
98.375
106.4375
114.375
120.6875
124.8125
126.875
127.0
125.6875
123.25
119.625
114.6875
108.8125
103.375
99.4375
97.0625
96.125
95.8125
95.875
95.9375
95.8125
95.5625
95.25
95.0625
94.75
94.3125
93.9375
93.3125
92.5
91.5625
90.5625
89.6875
89.0625
88.3125
87.375
86.625
86.625
87.25
90.0
95.6875
103.375
111.625
118.9375
124.125
127.0625
128.125
127.5
125.625
122.625
118.5
113.0
107.0625
102.3125
99.0
97.125
96.5625
96.4375
96.4375
96.4375
96.25
96.0625
95.875
95.625
95.3125
94.875
94.375
93.6875
92.75
91.6875
90.625
89.875
89.125
88.25
87.375
86.875
87.0625
88.375
92.375
99.125
107.3125
115.5
122.0625
126.4375
128.5
128.8125
127.6875
125.4375
122.125
117.5
111.6875
106.0625
101.75
98.9375
97.5
97.0625
96.9375
96.9375
96.9375
96.75
96.5
96.3125
95.9375
95.625
95.1875
94.5625
93.8125
92.875
91.875
91.0625
90.5
89.75
88.875
87.9375
87.6875
88.5
91.8125
98.3125
106.75
115.5
122.875
127.9375
130.6875
131.5625
130.875
129.125
126.25
122.125
116.6875
110.5625
105.4375
101.6875
99.5
98.6875
98.5
98.5625
98.6875
98.5625
98.375
98.1875
98.0625
97.6875
97.0625
96.3125
95.4375
94.5
93.375
92.4375
91.75
90.9375
89.875
88.8125
88.5
89.0
91.875
97.875
106.0625
114.875
122.5625
128.0
131.1875
132.5
132.25
130.5625
127.75
123.75
118.3125
111.875
106.1875
102.1875
99.875
98.9375
98.75
98.8125
98.875
98.8125
98.6875
98.375
98.0625
97.6875
97.3125
96.6875
95.9375
95.0
93.875
92.75
91.75
90.875
90.0625
89.1875
88.375
88.3125
88.9375
91.625
97.0625
104.375
112.4375
119.375
124.25
127.125
128.0625
127.25
125.1875
122.0
117.4375
111.6875
106.0625
101.75
98.875
97.3125
96.8125
96.625
96.5
96.375
96.125
95.8125
95.5625
95.375
95.0
94.625
94.0625
93.3125
92.375
91.25
90.3125
89.625
88.9375
88.0
87.3125
87.0625
87.3125
88.75
92.9375
99.5625
107.4375
115.1875
121.1875
125.0625
126.75
126.75
125.1875
122.5625
118.875
113.8125
108.0
102.9375
99.3125
97.125
96.125
95.875
95.875
95.875
95.6875
95.5625
95.375
95.1875
94.875
94.5
94.0
93.3125
92.4375
91.375
90.25
89.4375
88.8125
88.0
87.125
86.5625
86.625
87.4375
90.5
96.5
104.3125
112.625
119.6875
124.5625
127.125
127.875
126.9375
124.875
121.75
117.3125
111.75
106.0625
101.625
98.6875
97.125
96.625
96.5
96.4375
96.375
96.25
95.875
95.625
95.3125
95.0
94.625
94.0
93.25
92.375
91.375
90.375
89.625
88.9375
88.0
87.25
86.9375
87.1875
88.75
93.0625
100.0
108.25
116.1875
122.4375
126.4375
128.3125
128.4375
127.0625
124.625
121.0625
116.25
110.5625
105.0
101.125
98.625
97.25
96.8125
96.5625
96.3125
96.125
95.9375
95.75
95.5625
95.375
95.1875
94.8125
94.3125
93.625
92.6875
91.5625
90.6875
90.0625
89.1875
88.1875
87.5
87.5
88.625
92.5
99.3125
107.8125
116.375
123.375
128.0
130.375
130.8125
129.875
127.875
124.9375
120.6875
115.1875
109.3125
104.5625
101.3125
99.4375
98.875
98.75
98.75
98.625
98.3125
98.0625
97.75
97.375
97.125
96.875
96.3125
95.5625
94.5
93.25
92.1875
91.375
90.5
89.375
88.4375
88.125
88.8125
91.9375
98.4375
106.75
115.5625
123.125
128.4375
131.5
132.625
132.0625
130.25
127.3125
123.0625
117.4375
111.0625
105.625
101.8125
99.5
98.625
98.5625
98.6875
98.75
98.625
98.4375
98.1875
97.9375
97.5625
97.0
96.3125
95.4375
94.4375
93.375
92.25
91.4375
90.6875
89.8125
88.8125
88.1875
88.1875
88.9375
91.8125
97.5
105.0
112.9375
119.5625
124.25
126.875
127.5
126.5
124.375
121.0625
116.3125
110.5
104.8125
100.5625
97.875
96.5
96.125
96.125
96.0625
95.9375
95.6875
95.4375
95.1875
94.8125
94.4375
94.0
93.4375
92.75
91.75
90.6875
89.8125
89.1875
88.375
87.4375
86.5625
86.3125
86.6875
88.5
93.125
100.0625
108.1875
115.875
121.5625
125.0625
126.5
126.125
124.4375
121.6875
117.75
112.4375
106.6875
101.8125
98.5
96.5625
95.5625
95.4375
95.5
95.375
95.0
94.9375
95.0
94.4375
94.0
93.9375
93.3125
92.375
91.6875
90.9375
89.875
89.0625
88.5
87.75
86.8125
86.125
86.125
87.0
90.375
96.5
104.4375
112.6875
119.6875
124.5625
126.9375
127.4375
126.5
124.25
120.875
116.375
110.8125
105.1875
100.875
98.0625
96.625
96.125
96.0
95.9375
95.8125
95.6875
95.5
95.1875
94.875
94.5625
94.125
93.5
92.75
91.875
90.875
89.875
89.125
88.5
87.5625
86.625
86.3125
86.625
88.4375
93.1875
100.375
108.625
116.4375
122.5
126.25
128.0
127.875
126.375
123.875
120.1875
115.1875
109.25
103.9375
100.125
97.75
96.8125
96.5
96.4375
96.375
96.25
96.0625
95.8125
95.5
95.1875
94.8125
94.25
93.625
92.75
91.8125
90.8125
90.0
89.3125
88.5625
87.625
86.9375
86.875
87.8125
91.4375
98.125
106.625
115.1875
122.1875
126.875
129.25
129.8125
128.9375
127.0
124.0625
119.875
114.375
108.4375
103.6875
100.3125
98.4375
97.75
97.6875
97.6875
97.6875
97.5
97.25
96.9375
96.625
96.25
95.8125
95.1875
94.5
93.625
92.625
91.75
90.9375
90.0625
88.9375
87.75
87.375
88.0625
91.25
97.75
106.3125
115.125
122.625
127.875
130.75
131.75
131.25
129.5
126.6875
122.6875
117.25
111.125
105.875
102.0625
99.6875
98.6875
98.3125
98.3125
98.3125
98.25
98.0
97.75
97.4375
97.0625
96.625
96.0625
95.25
94.25
93.125
92.0625
91.25
90.5625
89.625
88.5625
87.8125
87.6875
88.4375
91.375
97.0
104.5625
112.4375
119.25
123.9375
126.4375
127.1875
126.25
124.0625
120.6875
115.9375
110.125
104.4375
100.125
97.3125
95.9375
95.6875
95.6875
95.75
95.8125
95.6875
95.375
95.0
94.625
94.1875
93.625
93.0
92.25
91.375
90.4375
89.5625
88.9375
88.25
87.25
86.3125
86.0
86.1875
87.8125
92.25
99.0625
107.0625
114.5625
120.5
124.0625
125.5625
125.3125
123.6875
121.0
117.0625
111.875
106.0
100.9375
97.5
95.4375
94.625
94.5
94.5625
94.5625
94.5
94.375
94.1875
93.9375
93.625
93.25
92.75
92.0625
91.1875
90.1875
89.1875
88.375
87.8125
87.0625
86.125
85.625
85.625
86.5
89.8125
96.0625
103.875
112.125
118.9375
123.5
125.875
126.4375
125.5
123.3125
120.125
115.875
110.25
104.625
100.375
97.5
95.9375
95.5
95.375
95.3125
95.1875
95.0625
94.8125
94.6875
94.375
94.0625
93.6875
93.0625
92.25
91.25
90.0625
89.125
88.4375
87.8125
87.0625
86.1875
85.875
86.125
87.6875
92.3125
99.5
107.875
115.75
121.75
125.5
127.0625
126.9375
125.4375
123.0
119.4375
114.5625
108.9375
103.6875
99.8125
97.3125
96.1875
95.875
95.75
95.625
95.5
95.25
95.0
94.875
94.6875
94.3125
93.875
93.1875
92.3125
91.3125
90.25
89.375
88.8125
88.125
87.1875
86.375
86.25
87.0625
90.375
96.6875
104.875
113.5
120.6875
125.5625
128.125
128.8125
128.0
126.0
122.875
118.6875
113.3125
107.5
102.6875
99.4375
97.6875
97.0
96.8125
96.875
96.8125
96.6875
96.5
96.3125
95.9375
95.5
95.125
94.625
93.875
93.0
92.0625
91.125
90.375
89.6875
88.6875
87.5625
87.0
87.375
89.9375
95.8125
104.0625
112.8125
120.625
126.1875
129.375
130.5
130.125
128.5625
125.9375
122.25
117.1875
111.1875
105.75
101.75
99.3125
98.1875
97.8125
97.875
97.9375
97.75
97.4375
97.0
96.6875
96.375
95.9375
95.375
94.75
93.875
92.875
91.8125
91.0625
90.3125
89.3125
88.25
87.25
87.0
87.625
90.3125
95.75
103.1875
111.3125
118.25
123.125
125.75
126.3125
125.625
123.625
120.5
116.0
110.25
104.375
99.9375
97.0625
95.5625
95.125
95.1875
95.3125
95.375
95.25
94.9375
94.5
94.125
93.6875
93.1875
92.5625
91.875
91.0625
90.0625
89.1875
88.5
87.8125
86.9375
86.0
85.5625
85.75
87.125
91.1875
97.75
105.625
113.25
119.25
123.0625
124.8125
124.75
123.25
120.75
117.125
112.1875
106.375
101.1875
97.5
95.25
94.3125
94.125
94.125
94.25
94.125
94.0
93.75
93.4375
93.0625
92.6875
92.25
91.625
90.9375
90.0
89.0
88.25
87.625
86.75
85.8125
85.1875
85.1875
85.9375
88.8125
94.6875
102.5
110.8125
117.875
122.6875
125.3125
125.875
124.8125
122.625
119.5625
115.4375
110.125
104.5625
100.0625
97.0625
95.4375
94.9375
94.875
94.9375
94.875
94.6875
94.375
94.125
93.8125
93.4375
93.0625
92.5
91.875
91.0
89.875
88.875
88.25
87.625
86.8125
85.9375
85.5
85.6875
87.0625
91.25
98.0625
106.375
114.5
120.9375
124.9375
126.75
126.6875
125.25
122.875
