0
35.0625
34.75
34.5
34.125
33.8125
33.5
33.125
32.8125
32.5625
32.3125
32.0625
31.75
31.5
31.25
30.9375
30.75
30.625
30.4375
30.3125
30.125
29.9375
29.75
29.5
29.3125
29.1875
29.0625
28.875
28.6875
28.5625
28.4375
28.25
28.25
28.9375
33.9375
49.375
74.3125
98.0
111.0
116.5625
119.0
116.5
109.1875
100.375
91.1875
81.9375
73.375
66.0
59.625
54.375
50.625
48.8125
48.4375
48.5625
49.0
49.5
49.8125
49.6875
49.375
48.875
48.25
47.4375
46.625
45.6875
44.8125
43.875
43.0625
42.3125
41.5625
40.9375
40.3125
39.75
39.125
38.5625
38.0625
37.6875
37.3125
36.9375
36.625
36.4375
36.3125
36.0625
35.875
35.6875
35.5
35.3125
35.1875
35.0
34.875
34.625
34.375
34.1875
34.0625
33.9375
33.6875
33.4375
33.1875
33.0
32.8125
32.5625
32.3125
32.125
31.875
31.625
31.3125
31.125
30.9375
30.75
30.5625
30.4375
30.3125
30.125
30.0625
31.375
38.625
56.5
81.5
103.25
114.0625
118.3125
119.4375
116.125
109.0
100.25
90.875
81.8125
73.625
66.375
60.125
55.0
51.5
50.0
49.625
49.6875
50.125
50.625
50.75
50.5625
50.125
49.5
48.875
48.125
47.1875
46.3125
45.5
44.625
43.75
43.0
42.3125
41.625
40.9375
40.3125
39.8125
39.25
38.6875
38.25
37.9375
37.625
37.25
36.9375
36.5625
36.25
35.9375
35.6875
35.4375
35.125
34.8125
34.5
34.1875
33.9375
33.6875
33.375
33.1875
33.0
32.75
32.4375
32.1875
31.9375
31.625
31.3125
31.125
30.9375
30.75
30.5
30.1875
29.9375
29.75
29.5625
29.375
29.1875
29.0625
29.0
28.8125
28.5625
28.375
28.375
28.25
28.0625
27.9375
27.8125
27.625
27.5
27.375
27.3125
27.25
27.875
32.5
47.375
72.1875
96.4375
110.625
117.4375
120.125
117.1875
110.0
100.9375
91.4375
82.4375
74.125
66.875
60.5
55.125
51.0625
48.9375
48.375
48.4375
48.8125
49.375
49.6875
49.6875
49.3125
48.875
48.3125
47.5625
46.8125
45.9375
45.0625
44.1875
43.375
42.625
41.875
41.1875
40.5625
40.0625
39.5
38.9375
38.375
37.9375
37.5
37.1875
36.9375
36.625
36.375
36.125
35.9375
35.6875
35.5625
35.4375
35.3125
35.125
34.9375
34.75
34.5625
34.4375
34.25
34.0625
33.875
33.6875
33.4375
33.25
33.0
32.8125
32.5
32.1875
31.9375
31.75
31.5
31.3125
31.125
30.875
30.6875
30.5625
30.5
32.0
39.8125
58.0
82.625
103.125
113.5625
118.375
119.75
116.6875
110.1875
101.625
92.375
83.375
75.25
68.0625
61.625
56.25
52.4375
50.5625
49.875
49.6875
49.875
50.25
50.5
50.3125
49.9375
49.375
48.6875
47.9375
47.1875
46.3125
45.375
44.4375
43.6875
42.9375
42.25
41.5625
40.9375
40.3125
39.75
39.25
38.875
38.4375
38.0625
37.625
37.25
36.8125
36.4375
36.125
35.875
35.5625
35.25
35.0
34.6875
34.5
35.3125
40.9375
56.3125
78.8125
99.1875
111.8125
118.25
120.3125
118.125
112.75
105.375
96.75
88.25
80.3125
72.875
65.9375
59.8125
55.3125
52.625
51.25
50.8125
50.875
51.0625
51.125
51.0
50.5625
49.9375
49.25
48.5625
47.6875
46.6875
45.6875
44.8125
44.0
43.25
42.5
41.8125
41.125
40.5
39.9375
39.375
38.8125
38.375
37.9375
37.5625
37.1875
36.8125
36.375
36.0625
35.8125
35.5
35.1875
34.8125
34.5
34.25
34.0
33.75
33.5625
33.4375
34.375
41.5625
61.375
89.1875
110.1875
119.6875
123.875
124.3125
119.3125
110.8125
101.375
91.3125
81.4375
72.9375
65.75
59.5625
54.875
52.4375
51.5625
51.3125
51.5
51.75
51.75
51.5
51.125
50.625
49.9375
49.0625
48.1875
47.125
46.125
45.1875
44.4375
43.625
42.875
42.125
41.5625
41.0
40.375
39.8125
39.3125
38.9375
38.5625
38.25
38.0625
37.875
37.75
37.625
37.4375
37.25
37.0
36.8125
36.5625
36.3125
36.1875
36.0
35.75
35.5
35.3125
35.0625
34.75
34.4375
34.1875
33.9375
33.5625
33.25
33.0
32.875
32.6875
32.5625
32.25
32.125
33.5
41.8125
63.625
93.4375
115.8125
125.875
130.0
128.6875
122.0625
112.8125
102.375
91.5
81.4375
72.875
65.625
59.5625
55.0
52.5
51.6875
51.625
52.0
52.375
52.625
52.5
52.125
51.5625
50.875
50.0
49.125
48.1875
47.1875
46.25
45.375
44.5625
43.8125
43.0625
42.3125
41.625
41.0625
40.5625
40.0625
39.5625
39.1875
38.8125
38.375
38.0625
37.75
37.375
37.0625
36.75
36.4375
36.125
35.8125
35.5
35.1875
34.9375
34.6875
34.4375
34.125
33.9375
33.6875
33.375
33.125
32.875
32.6875
32.5
32.25
32.125
31.9375
31.6875
31.9375
35.75
50.375
77.0
103.875
118.6875
124.9375
128.0625
125.5
118.1875
109.1875
99.125
89.0625
80.0
71.9375
64.8125
58.875
54.6875
52.5
51.6875
51.5625
51.8125
52.0625
52.125
51.875
51.4375
50.875
50.1875
49.375
48.5
47.4375
46.4375
45.5
44.6875
43.875
43.125
42.375
41.625
41.0
40.4375
39.9375
39.4375
38.9375
38.4375
38.0
37.6875
37.25
36.875
36.625
36.375
36.0
35.625
35.3125
35.0625
34.875
34.5625
34.3125
34.0625
34.125
37.0625
49.0
72.0625
95.5625
110.0
117.5625
120.8125
118.8125
112.875
104.375
94.4375
84.5625
75.625
67.875
61.1875
55.875
52.5625
51.125
50.6875
50.875
51.4375
52.0
52.125
52.0
51.6875
51.125
50.4375
49.5625
48.6875
47.75
46.75
45.8125
45.0
44.25
43.5
42.8125
42.1875
41.5
40.9375
40.375
39.875
39.4375
39.0
38.5625
38.125
37.8125
37.5
37.125
36.875
36.625
36.3125
36.0
35.6875
35.375
35.125
34.8125
34.5
34.25
34.0
33.8125
33.5
33.25
32.9375
32.625
32.4375
32.25
32.125
31.9375
31.75
31.5625
31.4375
31.9375
37.125
54.75
84.5625
111.4375
124.8125
130.6875
131.8125
127.1875
119.3125
110.0
99.3125
88.625
79.3125
71.25
64.0625
58.25
54.25
52.25
51.6875
51.9375
52.4375
52.75
52.8125
52.5625
52.0625
51.4375
50.625
49.75
48.8125
47.8125
46.8125
45.875
45.0625
44.25
43.4375
42.6875
42.0625
41.375
40.75
40.25
39.8125
39.375
38.875
38.4375
38.0625
37.6875
37.1875
36.75
36.4375
36.1875
35.8125
35.4375
35.0
34.6875
34.375
34.0625
33.8125
33.625
33.4375
33.125
32.75
32.5
32.3125
32.1875
31.875
31.625
31.4375
31.25
31.0625
30.8125
30.6875
30.5
30.3125
30.125
29.9375
29.8125
29.6875
29.5
29.25
29.1875
29.0
28.875
28.625
28.4375
28.375
28.3125
28.1875
28.0625
28.75
34.4375
52.5
80.75
104.4375
115.3125
120.5
121.75
115.75
105.625
95.1875
85.0625
75.5625
67.5
60.8125
55.25
51.125
48.9375
48.3125
48.4375
48.875
49.4375
49.875
49.875
49.625
49.125
48.5
47.875
47.0625
46.1875
45.4375
44.625
43.875
43.25
42.625
41.9375
41.375
40.875
40.4375
40.0
39.5625
39.125
38.75
38.4375
38.1875
37.9375
37.625
37.375
37.125
36.8125
36.5625
36.25
35.875
35.4375
35.0625
34.8125
34.5
34.25
34.9375
40.125
54.6875
76.9375
98.3125
111.8125
118.4375
120.6875
118.5625
113.75
107.3125
99.0625
90.0625
81.4375
73.3125
65.6875
59.25
54.8125
52.25
50.9375
50.5625
50.6875
50.875
50.9375
50.875
50.625
50.0625
49.375
48.5625
47.6875
46.8125
45.9375
45.0625
44.25
43.4375
42.6875
41.9375
41.25
40.5625
40.0
39.4375
38.9375
38.5
38.0
37.5
37.1875
36.875
36.5
36.1875
35.9375
35.625
35.25
35.0
34.6875
34.375
34.125
33.875
33.6875
33.4375
33.1875
32.875
32.625
32.375
32.125
31.9375
31.6875
31.5
31.3125
31.125
30.9375
30.6875
30.5
30.375
30.1875
30.0625
29.875
29.6875
29.4375
29.25
29.0625
28.9375
28.8125
28.625
28.4375
28.1875
28.0
27.8125
27.625
27.375
27.3125
27.1875
27.0625
26.9375
26.75
26.6875
26.625
26.5625
26.375
26.25
26.1875
26.125
26.0
26.1875
29.0
41.5
67.875
98.0
114.8125
120.1875
122.8125
119.75
111.25
101.4375
91.5
81.4375
72.125
64.4375
58.0625
52.9375
49.4375
47.9375
47.625
47.8125
48.3125
48.875
49.125
49.0
48.6875
48.25
47.625
46.8125
45.9375
45.0625
44.25
43.375
42.5
41.625
40.8125
40.0625
39.5
38.875
38.3125
37.8125
37.25
36.8125
36.375
36.0
35.625
35.3125
35.0625
34.8125
34.5625
34.25
33.9375
33.6875
33.4375
33.25
33.0625
32.875
32.6875
32.5
32.375
32.3125
32.3125
32.1875
32.0625
32.0625
32.0625
32.0625
31.9375
31.875
31.875
31.75
31.625
31.4375
31.3125
31.1875
31.125
30.9375
30.6875
30.4375
30.125
29.875
29.6875
29.5625
29.3125
29.0625
28.9375
28.8125
28.75
28.625
28.5
28.25
28.0625
28.0
28.0
27.875
27.8125
28.625
34.625
50.875
75.4375
98.625
111.6875
116.875
117.375
112.6875
105.125
96.25
86.75
77.6875
69.8125
62.9375
57.0
52.25
49.25
47.9375
47.5
47.6875
48.125
48.625
48.8125
48.75
48.375
47.8125
47.1875
46.4375
45.6875
44.8125
43.9375
43.0625
42.3125
41.5625
40.8125
40.125
39.5
38.9375
38.4375
37.9375
37.375
37.0
36.6875
36.3125
36.0
35.6875
35.3125
35.0
34.75
34.4375
34.1875
33.875
33.625
33.375
33.0625
32.8125
32.5625
32.3125
32.0
31.8125
31.6875
31.5
31.125
30.875
30.625
30.4375
30.3125
30.125
30.0
29.8125
29.625
29.4375
29.3125
29.125
28.9375
28.75
28.625
28.5
28.3125
28.125
27.875
27.625
27.5
27.3125
27.1875
27.0625
26.8125
26.625
26.4375
26.1875
26.0625
26.0
25.875
25.75
25.625
25.5625
25.5
25.625
27.375
35.6875
54.75
80.0625
99.25
107.3125
112.125
114.1875
110.0
102.375
94.0625
85.3125
76.625
68.5625
61.625
55.8125
51.0625
47.9375
46.6875
46.4375
46.6875
47.25
47.75
47.8125
47.625
47.3125
46.8125
46.1875
45.4375
44.5625
43.75
42.9375
42.125
41.3125
40.5625
39.8125
39.25
38.6875
38.125
37.625
37.125
36.5625
36.0625
35.625
35.25
35.0
34.6875
34.375
34.125
33.8125
33.5
33.25
33.0
32.6875
32.4375
32.1875
31.9375
31.6875
31.5
31.3125
31.125
30.9375
30.75
30.625
30.625
30.5625
30.5625
30.625
30.6875
30.6875
30.75
30.75
30.75
30.75
30.8125
30.75
30.6875
30.5625
30.4375
30.3125
30.125
29.9375
29.75
29.5625
29.3125
29.125
28.875
28.75
28.625
28.4375
28.3125
28.125
28.125
29.3125
35.75
51.5625
73.8125
94.5625
106.5625
112.0
114.1875
111.25
104.1875
95.5625
86.1875
77.0625
69.125
62.3125
56.4375
51.8125
49.0
47.6875
47.1875
47.25
47.6875
48.0625
48.25
48.1875
47.9375
47.375
46.75
46.125
45.4375
44.6875
43.9375
43.0625
42.25
41.5
40.8125
40.1875
39.625
39.0625
38.5625
38.0
37.5
37.0
36.6875
36.3125
35.9375
35.6875
35.4375
35.1875
34.875
34.5
34.1875
33.875
33.6875
33.4375
33.1875
32.9375
32.625
32.375
32.125
31.9375
31.75
31.5
31.3125
31.125
30.875
30.6875
30.4375
30.1875
30.0
29.875
29.75
29.625
29.375
29.25
29.0
28.8125
28.625
29.3125
34.4375
48.9375
71.875
94.9375
108.8125
115.0625
117.9375
116.375
111.25
104.875
97.25
88.875
80.3125
72.3125
65.1875
58.9375
53.875
50.75
49.3125
48.8125
48.8125
49.125
49.4375
49.5
49.25
48.875
48.3125
47.6875
46.875
46.0
45.125
44.3125
43.5
42.6875
41.9375
41.25
40.625
40.125
39.5
38.8125
38.25
37.6875
37.25
36.875
36.5625
36.3125
36.0
35.625
35.25
35.0
34.75
34.5
34.25
33.9375
33.75
33.5625
33.25
32.9375
32.6875
32.5
32.3125
32.125
31.875
31.625
31.4375
31.3125
31.125
30.9375
30.75
30.5
30.25
30.125
30.0625
30.0625
29.9375
29.8125
29.6875
29.625
29.5625
29.625
29.625
29.6875
29.6875
29.75
29.8125
30.25
33.3125
44.375
64.9375
88.3125
105.1875
113.0625
116.4375
115.0625
108.25
98.8125
89.3125
79.9375
71.375
64.0625
58.0625
53.25
50.0625
48.625
48.1875
48.3125
48.75
49.375
49.625
49.625
49.3125
48.9375
48.5
47.8125
47.0625
46.25
45.4375
44.5625
43.8125
43.0625
42.375
41.6875
41.0
40.4375
39.9375
39.375
38.875
38.5
38.0625
37.625
37.3125
36.9375
36.625
36.3125
36.0625
35.75
35.5
35.25
35.0
34.6875
34.4375
34.125
33.875
33.625
33.375
33.1875
32.9375
32.6875
32.4375
32.1875
32.0625
31.875
31.6875
31.4375
31.375
31.25
31.0625
30.875
30.625
30.4375
30.3125
30.1875
30.0625
30.0
30.0
31.5625
39.4375
57.9375
83.1875
104.9375
116.6875
122.9375
125.8125
123.375
118.0
111.3125
103.0
93.75
85.0625
76.75
69.0
62.25
56.9375
53.4375
51.875
51.25
51.25
51.5625
51.875
51.9375
51.75
51.375
50.75
50.0625
49.3125
48.375
47.4375
46.5625
45.75
44.9375
44.1875
43.5
42.75
42.0625
41.4375
40.875
40.25
39.6875
39.25
38.875
38.5
38.0
37.5625
37.1875
36.875
36.5
36.1875
35.8125
35.5
35.25
35.0
34.6875
34.5
34.3125
34.0
33.75
33.5
33.3125
33.125
32.875
32.625
32.5
32.25
32.0625
31.8125
31.625
31.375
31.25
31.5
34.625
46.375
69.0
94.1875
111.3125
119.875
124.5625
124.625
119.875
112.4375
103.5625
94.125
84.875
76.3125
68.5625
61.875
56.375
52.625
50.9375
50.375
50.5
51.0
51.5
51.6875
51.625
51.3125
50.875
50.25
49.4375
48.5
47.5625
46.75
45.9375
45.125
44.3125
43.5
42.8125
42.1875
41.625
41.0625
40.5
39.9375
39.4375
39.125
38.75
38.5
38.25
38.0
37.75
37.5625
37.3125
37.125
37.0
36.875
36.6875
36.6875
36.625
36.5625
36.375
36.125
35.875
35.6875
35.5
35.1875
34.875
34.625
34.375
34.125
33.875
33.625
33.3125
33.125
33.8125
39.1875
55.0625
80.125
104.0625
118.25
125.3125
128.5
125.9375
118.375
109.25
99.9375
90.25
80.9375
72.9375
65.9375
60.0
55.75
53.625
52.8125
52.625
52.9375
53.3125
53.4375
53.25
52.875
52.3125
51.5625
50.6875
49.8125
48.9375
48.0
47.125
46.1875
45.4375
44.75
44.0625
43.3125
42.5625
42.0625
41.625
41.0625
40.5625
40.0625
39.6875
39.3125
38.9375
38.5625
38.25
38.0
37.6875
37.4375
37.125
36.875
36.5625
36.25
35.875
35.5625
35.3125
35.125
34.9375
34.6875
34.375
34.125
33.875
33.625
33.5
33.3125
33.125
32.9375
32.6875
32.4375
32.375
32.1875
32.0
31.9375
33.0625
39.875
58.5625
86.625
111.25
124.5625
131.1875
133.4375
130.25
123.25
115.0
106.0
96.0625
86.4375
77.9375
70.1875
63.3125
58.0625
55.125
53.8125
53.4375
53.625
54.0625
54.3125
54.1875
53.875
53.3125
52.6875
51.8125
50.9375
49.9375
48.9375
47.9375
46.875
46.0
45.1875
44.4375
43.75
43.125
42.5
41.875
41.375
40.8125
40.3125
39.875
39.5625
39.1875
38.875
38.5
38.1875
37.8125
37.5625
37.25
36.9375
36.6875
36.375
36.125
35.8125
35.5
35.25
35.0
34.75
34.5
34.25
34.125
33.9375
33.75
33.5625
33.3125
33.1875
32.9375
33.3125
37.625
52.5
78.0
102.5
117.0625
124.375
127.4375
124.9375
118.0
108.6875
97.8125
87.1875
78.0
70.0625
63.125
57.75
54.4375
53.1875
52.9375
53.0625
53.6875
54.1875
54.4375
54.25
53.8125
53.1875
52.4375
51.5
50.5625
49.625
48.5625
47.625
46.75
45.75
44.9375
44.25
43.5625
42.9375
42.4375
41.9375
41.5
41.0
40.4375
40.0625
39.8125
39.4375
39.0625
38.75
38.5
38.3125
37.875
37.4375
37.1875
36.875
36.5
36.25
36.0625
35.875
35.5625
35.3125
35.0
34.75
34.5
34.25
34.0625
33.8125
33.6875
33.5
33.3125
33.1875
33.75
38.5
54.1875
80.8125
107.3125
123.6875
132.0625
136.625
136.0
130.4375
123.0625
114.875
105.0625
94.5625
84.6875
75.8125
67.875
61.625
57.75
55.8125
55.1875
55.375
55.75
56.0
55.9375
55.625
55.0625
54.375
53.4375
52.4375
51.375
50.3125
49.3125
48.3125
47.4375
46.5625
45.75
45.0
44.25
43.625
42.9375
42.375
41.9375
41.4375
41.0
40.5625
40.0625
39.625
39.1875
38.875
38.5
38.125
37.75
37.375
37.0
36.625
36.375
36.125
35.875
35.625
35.375
35.0625
34.75
34.5625
34.3125
34.0625
33.875
33.6875
33.5625
34.375
40.125
57.8125
85.625
109.75
122.8125
130.25
133.625
130.875
123.5625
113.9375
103.3125
92.625
82.6875
73.875
66.25
60.1875
56.3125
54.4375
53.75
53.875
54.375
54.8125
55.0
54.8125
54.4375
53.75
52.875
51.9375
50.9375
49.8125
48.75
47.6875
46.6875
45.75
45.0
44.3125
43.6875
43.0625
42.3125
41.75
41.25
40.75
40.3125
40.0
39.625
39.25
38.9375
38.6875
38.4375
38.1875
37.9375
37.6875
37.4375
37.25
37.125
37.0
36.875
36.6875
36.5
36.375
36.3125
36.1875
36.375
38.875
49.5
71.6875
97.75
116.625
126.625
131.125
129.75
123.25
114.1875
103.8125
92.6875
81.875
72.625
64.8125
58.75
55.0
53.4375
53.1875
53.625
54.3125
54.9375
55.1875
55.0625
54.625
53.875
53.0625
52.125
51.1875
50.25
49.1875
48.125
47.125
46.1875
45.3125
44.5
43.875
43.25
42.5625
42.0625
41.5625
41.0
40.5625
40.1875
39.8125
39.5
39.1875
38.875
38.5
38.1875
37.875
37.5625
37.3125
37.0
36.6875
36.5
36.25
35.875
35.5625
35.3125
35.125
34.875
34.625
34.375
34.1875
34.125
35.0625
41.5625
60.875
90.375
115.8125
129.5625
137.125
139.4375
134.8125
127.125
118.875
109.0625
98.25
88.0
78.875
70.6875
63.8125
59.125
56.5625
55.625
55.6875
56.0625
56.375
56.4375
56.3125
55.8125
55.0625
54.125
53.125
52.0625
51.0
49.875
48.75
47.75
46.875
46.0625
45.25
44.5
43.75
43.125
42.4375
41.8125
41.25
40.8125
40.375
40.0
39.5625
39.1875
38.75
38.375
38.0625
37.6875
37.3125
37.0
36.75
36.5
36.1875
35.875
35.625
35.375
35.125
34.875
34.5625
34.3125
34.0625
33.8125
33.5625
33.375
33.3125
34.0
39.3125
56.9375
85.8125
111.625
125.8125
133.0625
135.1875
131.25
123.25
113.25
102.1875
91.25
81.4375
72.6875
65.0
59.0
55.4375
54.0
53.625
53.8125
54.3125
54.75
54.8125
54.5625
54.0625
53.3125
52.4375
51.4375
50.375
49.25
48.1875
47.1875
46.3125
45.5
44.625
43.875
43.25
42.6875
42.0625
41.5
40.875
40.375
39.9375
39.5625
39.125
38.875
38.5625
38.3125
38.125
37.875
37.6875
37.4375
37.25
37.0
36.8125
36.6875
36.5625
36.4375
36.25
36.125
35.9375
35.75
35.5625
35.3125
35.0
34.875
34.75
34.75
36.375
45.125
66.0
93.9375
116.0625
127.125
131.375
130.1875
123.875
114.5625
103.9375
92.875
82.375
73.3125
65.6875
59.3125
54.9375
52.8125
52.3125
52.5625
53.1875
53.875
54.1875
54.125
53.875
53.25
52.375
51.5
50.5625
49.4375
48.4375
47.4375
46.5
45.625
44.6875
43.875
43.3125
42.625
42.0
41.375
40.875
40.375
39.9375
39.5
39.125
38.8125
38.5625
38.1875
37.875
37.5625
37.25
37.0
36.6875
36.375
36.0625
35.8125
35.4375
35.125
34.875
34.6875
34.5
34.3125
33.9375
33.6875
33.5
33.3125
33.0625
32.8125
32.6875
32.5625
32.4375
33.0
37.875
54.5
83.0625
110.6875
125.875
132.9375
135.9375
132.5
124.875
116.0625
106.375
95.875
85.625
76.625
68.875
62.1875
57.375
54.8125
53.875
53.875
54.25
54.5625
54.6875
54.5625
54.125
53.4375
52.5625
51.6875
50.625
49.5
48.375
47.25
46.3125
45.375
44.5625
43.8125
43.0625
42.4375
41.8125
41.125
40.625
40.1875
39.75
39.3125
38.9375
38.5625
38.1875
37.9375
37.5625
37.25
36.9375
36.6875
36.4375
36.125
35.75
35.4375
35.1875
34.9375
34.75
34.4375
34.125
33.8125
33.5625
33.3125
33.0625
32.875
32.6875
32.5625
32.3125
32.0625
31.875
31.8125
31.6875
31.5625
32.4375
38.5
56.875
85.375
109.9375
121.875
127.125
128.5
123.75
114.5625
104.3125
93.8125
83.25
73.75
65.8125
59.25
54.25
51.6875
51.125
51.4375
52.1875
53.125
53.8125
54.0
53.875
53.4375
52.75
51.875
50.875
49.875
48.875
47.875
46.875
45.9375
45.125
44.3125
43.5625
42.8125
42.25
41.625
41.125
40.625
40.1875
39.6875
39.3125
38.9375
38.6875
38.3125
38.0
37.75
37.5
37.1875
36.8125
36.4375
36.125
35.75
35.4375
35.1875
34.875
34.625
34.4375
34.1875
33.875
33.5625
33.3125
33.0625
32.875
32.6875
32.5
32.4375
33.375
39.6875
57.5
84.6875
109.125
122.875
129.9375
132.0625
128.0625
120.8125
112.4375
102.8125
92.75
83.25
74.8125
67.1875
60.8125
56.5
54.25
53.3125
53.3125
53.8125
54.1875
54.3125
54.0625
53.5625
52.875
52.0625
51.1875
50.1875
49.0625
47.9375
46.9375
46.0
45.0625
44.1875
43.4375
42.75
42.0625
41.4375
40.875
40.375
39.875
39.4375
39.0625
38.75
38.375
38.0
37.625
37.3125
36.9375
36.6875
36.5
36.1875
35.875
35.5625
35.3125
34.9375
34.625
34.375
34.1875
34.0
34.5625
39.25
54.5
79.75
103.875
118.75
125.9375
128.0
125.625
119.5625
110.875
100.75
90.3125
80.6875
72.25
64.6875
58.5625
54.625
52.625
51.8125
51.9375
52.5
52.9375
53.0625
53.0
52.5625
51.9375
51.0
50.0625
49.0
48.0
46.9375
46.0
45.0625
44.125
43.3125
42.625
42.0
41.375
40.75
40.25
39.75
39.1875
38.75
38.375
38.0625
37.6875
37.3125
37.0
36.6875
36.3125
36.125
35.875
35.5625
35.3125
35.0
34.6875
34.375
34.0625
33.875
33.625
33.4375
33.1875
32.875
32.5625
32.375
32.25
32.25
34.0
43.5
66.125
94.25
113.6875
122.6875
126.25
124.3125
117.0
106.75
95.3125
84.25
74.5625
66.4375
59.5625
54.3125
51.5625
50.75
50.75
51.25
52.0
52.625
52.875
52.75
52.375
51.6875
50.9375
50.125
49.1875
48.1875
47.1875
46.375
45.5625
44.8125
44.0625
43.5
42.9375
42.3125
41.6875
41.125
40.625
40.1875
39.75
39.3125
38.875
38.625
38.25
37.9375
37.6875
37.375
37.0
36.6875
36.4375
36.125
35.8125
35.5625
35.25
34.9375
34.6875
34.375
34.125
33.875
33.5625
33.3125
33.125
32.875
32.5625
32.375
32.25
32.0625
31.8125
31.6875
31.5
31.25
31.0625
30.875
30.875
30.8125
30.75
31.875
39.25
59.4375
88.75
112.5625
123.875
129.3125
130.875
126.4375
118.25
108.4375
98.1875
88.125
78.625
70.125
62.9375
57.3125
53.6875
52.125
51.8125
52.1875
52.8125
53.3125
53.5
53.3125
52.8125
52.125
51.25
50.1875
49.125
48.0625
47.0
46.0
45.125
44.25
43.5
42.8125
42.1875
41.625
40.9375
40.4375
39.875
39.4375
39.0
38.5625
38.25
38.0
37.625
37.25
36.9375
36.625
36.3125
36.0
35.6875
35.4375
35.125
34.8125
34.5625
34.25
34.0
33.8125
33.4375
33.1875
32.9375
32.6875
32.4375
33.0
38.1875
54.25
79.75
103.5625
117.75
124.6875
126.75
123.375
116.625
108.0625
98.3125
88.375
79.125
70.6875
63.25
57.3125
53.5625
51.6875
51.125
51.4375
51.9375
52.375
52.5625
52.5625
52.1875
51.5
50.75
49.75
48.75
47.6875
46.6875
45.6875
44.875
44.125
43.375
42.625
41.8125
41.125
40.5
39.9375
39.4375
38.9375
38.5
38.1875
37.8125
37.4375
37.125
36.8125
36.5
36.1875
35.875
35.5625
35.25
35.0
34.75
34.5625
34.3125
34.0
33.75
33.5625
33.3125
33.125
32.75
32.5
32.3125
32.1875
31.9375
31.75
31.75
31.6875
32.0
35.8125
50.0625
75.5625
101.0
115.875
122.3125
123.8125
119.5625
110.5625
99.75
89.0625
78.9375
70.0
62.625
56.6875
52.625
50.8125
50.375
50.5625
51.1875
52.0
52.5625
52.6875
52.5625
52.0625
51.375
50.5
49.625
48.6875
47.75
46.8125
45.8125
44.875
44.0625
43.25
42.625
42.0625
41.4375
40.8125
40.3125
39.75
39.3125
38.9375
38.5625
38.1875
37.875
37.625
37.3125
37.0
36.6875
36.4375
36.125
35.875
35.625
35.375
35.0625
34.75
34.5
34.25
34.0
33.75
33.5625
33.3125
33.0
32.75
32.5625
32.4375
32.25
32.0
31.875
31.8125
31.75
33.0
40.75
61.0
89.625
113.4375
125.8125
132.0625
133.75
130.0625
123.25
114.8125
104.875
94.625
84.9375
76.0625
67.875
61.0625
56.25
53.6875
52.6875
52.8125
53.375
53.8125
54.0625
54.0625
53.8125
53.1875
52.3125
51.4375
50.5625
49.5
48.4375
47.4375
46.5
45.625
44.8125
44.0
43.25
42.5625
41.9375
41.3125
40.8125
40.3125
39.8125
39.375
39.0
38.5625
38.1875
37.75
37.3125
36.9375
36.625
36.3125
36.0
35.6875
35.3125
35.0
34.6875
34.5
34.25
34.0
33.75
33.5
33.3125
33.125
33.0
34.1875
41.75
61.6875
89.1875
111.0
122.75
128.9375
129.5625
125.0
117.375
107.5
97.0625
87.375
78.375
70.125
62.8125
57.1875
53.75
52.1875
51.625
51.875
52.375
52.75
52.875
52.75
52.3125
51.6875
50.8125
49.8125
48.875
47.875
46.875
45.9375
45.125
44.3125
43.625
42.875
42.125
41.375
40.8125
40.25
39.75
39.1875
38.8125
38.375
37.9375
37.625
37.375
37.0625
36.6875
36.375
36.0625
35.75
35.5
35.25
35.0
34.75
34.4375
34.1875
34.0
33.9375
33.8125
33.6875
33.5625
33.5
33.375
33.375
33.4375
33.4375
33.4375
33.375
33.25
33.1875
33.125
33.0625
33.0
32.8125
32.625
32.5
32.375
32.0625
32.625
38.3125
55.25
81.9375
106.625
120.0
126.25
127.875
122.625
112.75
101.9375
91.25
81.0
72.0
64.5
58.3125
53.8125
51.375
50.6875
50.9375
51.625
52.25
52.625
52.75
52.5
51.875
51.125
50.375
49.5
48.625
47.6875
46.75
45.875
45.0
44.1875
43.4375
42.75
42.0625
41.5
40.9375
40.3125
39.8125
39.375
39.0625
38.6875
38.3125
37.9375
37.6875
37.375
36.9375
36.625
36.4375
36.125
35.8125
35.5625
35.3125
35.0
34.75
34.5
34.25
34.0
33.6875
33.4375
33.1875
33.0
32.8125
32.5625
32.5
33.625
40.3125
58.25
84.375
107.1875
120.6875
128.1875
130.4375
127.625
121.625
113.3125
103.875
94.3125
85.0
76.1875
68.25
61.4375
56.5
53.75
52.5
52.25
52.5625
53.0
53.1875
53.1875
52.8125
52.125
51.3125
50.4375
49.5625
48.5
47.5
46.5625
45.625
44.6875
43.75
43.0
42.3125
41.75
41.125
40.5
39.9375
39.4375
38.9375
38.5
38.1875
37.875
37.5
37.125
36.6875
36.375
36.0625
35.75
35.4375
35.1875
34.875
34.5625
34.3125
34.0
33.6875
33.4375
33.125
32.875
32.5625
32.375
32.1875
31.875
31.6875
31.625
31.5
31.375
32.875
41.75
63.5625
91.1875
110.75
120.3125
125.5
124.5625
117.5625
108.625
99.0
88.6875
78.875
70.1875
62.6875
56.4375
52.1875
50.25
49.6875
49.875
50.5
51.1875
51.625
51.75
51.625
51.3125
50.8125
50.125
49.375
48.5625
47.75
46.9375
46.125
45.25
44.5
43.8125
43.1875
42.5625
41.9375
41.4375
40.9375
40.4375
39.9375
39.4375
39.0625
38.6875
38.3125
38.0
37.6875
37.3125
37.0
36.75
36.4375
36.125
35.8125
35.5625
35.3125
35.125
34.8125
34.5
34.1875
33.9375
33.625
33.375
33.125
32.9375
32.8125
32.5625
32.3125
32.125
31.9375
31.6875
31.5625
31.5
31.8125
35.25
48.3125
73.125
100.0
117.3125
126.25
131.0625
130.0625
124.0
115.625
106.375
96.5
86.625
77.5
69.3125
62.375
57.125
54.0625
52.6875
52.4375
52.8125
53.3125
53.5625
53.5625
53.25
52.6875
51.875
51.0
50.125
49.1875
48.1875
47.1875
46.25
45.375
44.5625
43.6875
42.875
42.125
41.4375
40.875
40.25
39.625
39.125
38.6875
38.25
37.8125
37.375
37.0
36.625
36.3125
35.9375
35.625
35.375
35.125
34.875
34.5625
34.1875
33.8125
33.5625
33.3125
33.0625
32.8125
32.625
32.375
32.1875
31.9375
31.75
31.5625
31.375
31.125
30.9375
30.75
30.625
30.375
30.1875
30.0
29.8125
29.625
29.4375
29.25
29.125
29.0
28.875
28.75
28.5625
28.4375
28.3125
28.1875
28.0625
27.9375
27.75
27.625
27.5625
27.5
27.8125
31.5625
45.6875
71.625
97.75
112.0625
118.375
121.375
117.9375
109.125
98.625
88.375
78.5625
69.625
62.125
55.9375
51.25
48.5
47.75
48.0625
48.75
49.6875
50.4375
50.875
51.0625
50.9375
50.4375
49.8125
49.0
48.125
47.25
46.4375
45.625
44.75
43.875
43.125
42.375
41.625
41.0
40.375
39.8125
39.375
38.9375
38.5625
38.125
37.75
37.375
37.125
36.875
36.5625
36.25
35.9375
35.625
35.3125
35.0
34.6875
34.4375
34.25
34.0
33.6875
33.375
33.125
32.875
32.625
32.375
32.125
32.0
31.75
31.5
31.25
31.0625
30.8125
30.6875
30.625
30.5
30.25
30.125
30.0
29.75
29.625
29.4375
29.25
29.0625
28.9375
28.8125
28.6875
28.5625
28.375
28.1875
28.1875
28.125
28.0625
28.625
33.4375
48.0
72.3125
97.4375
112.8125
120.625
124.3125
122.125
116.1875
108.8125
100.125
90.875
81.75
73.0625
65.5
59.0
53.8125
50.5625
49.125
48.75
49.0625
49.75
50.25
50.5
50.4375
50.0625
49.4375
48.6875
47.875
46.9375
46.0
45.0625
44.125
43.1875
42.4375
41.6875
41.0
40.3125
39.5625
38.8125
38.25
37.75
37.375
36.9375
36.5625
36.3125
35.9375
35.625
35.3125
35.0
34.6875
34.4375
34.1875
33.9375
33.625
33.375
33.0
32.75
32.5625
32.3125
32.0
31.6875
31.375
31.125
30.875
30.6875
30.4375
30.25
30.125
30.0
29.8125
29.625
29.5
29.3125
29.125
28.875
28.75
28.5
28.375
28.25
28.0625
27.9375
27.8125
27.625
27.4375
27.25
27.1875
27.0625
26.9375
26.875
26.75
26.625
26.4375
26.3125
26.25
26.25
26.1875
26.4375
29.6875
42.0
64.6875
89.4375
105.5
112.125
114.6875
112.6875
105.8125
96.5625
86.9375
77.75
69.4375
62.1875
56.0625
51.125
47.6875
46.25
46.1875
46.625
47.4375
48.4375
49.125
49.4375
49.4375
48.9375
48.3125
47.6875
46.875
46.0
45.0625
44.125
43.125
42.3125
41.625
40.9375
40.3125
39.75
39.1875
38.625
38.125
37.6875
37.3125
37.0
36.6875
36.375
36.125
35.875
35.625
35.25
34.875
34.5625
34.25
34.0
33.8125
33.5625
33.25
32.9375
32.6875
32.375
32.1875
32.0
31.75
31.5
31.3125
31.0625
30.9375
30.75
30.5
30.375
30.25
30.0625
29.875
29.6875
29.5
29.25
29.125
28.875
28.8125
28.6875
28.5
28.375
28.1875
28.0625
27.875
27.8125
28.125
31.0625
41.6875
61.9375
86.5
105.6875
115.4375
120.0625
119.9375
115.875
110.0
102.9375
94.6875
86.1875
77.875
70.0
62.8125
56.75
52.375
49.875
48.875
48.6875
49.0625
49.5625
49.9375
49.9375
49.75
49.3125
48.6875
47.875
47.0
46.0625
45.125
44.3125
43.5
42.75
41.9375
41.1875
40.4375
39.8125
39.25
38.6875
38.125
37.75
37.375
36.9375
36.5625
36.125
35.75
35.5
35.1875
34.875
34.5625
34.125
33.8125
33.4375
33.125
32.8125
32.4375
32.1875
31.875
31.625
31.3125
31.0625
30.875
30.625
30.375
30.1875
30.0
29.8125
29.5625
29.4375
29.25
29.4375
32.0625
42.4375
63.0625
86.8125
103.9375
112.9375
117.0
116.375
111.4375
104.0625
95.75
86.875
78.3125
70.4375
63.3125
57.0
52.125
49.3125
47.9375
47.5
47.625
48.1875
48.625
48.75
48.5625
48.1875
47.5625
46.8125
45.9375
45.0625
44.125
43.1875
42.3125
41.5625
40.8125
40.0625
39.375
38.8125
38.25
37.625
37.0625
36.625
36.1875
35.8125
35.5
35.125
34.8125
34.5625
34.375
34.125
33.8125
33.5625
33.3125
33.0625
32.8125
32.625
32.4375
32.25
32.0625
31.9375
31.875
31.8125
31.9375
32.0
32.125
33.3125
39.75
56.0
78.75
99.0625
110.5
114.4375
114.5
110.375
102.125
92.3125
82.75
73.8125
65.875
59.3125
53.9375
50.125
48.3125
47.875
48.0
48.625
49.3125
49.6875
49.6875
49.375
48.875
48.25
47.375
46.5625
45.8125
45.0
44.125
43.25
42.5
41.75
41.0625
40.4375
39.75
39.1875
38.6875
38.1875
37.75
37.4375
37.0625
36.6875
36.375
36.0
35.75
35.5
35.25
35.0
34.75
34.5
34.25
33.875
33.625
33.375
33.125
32.875
32.625
32.4375
32.1875
31.875
31.625
31.5
31.375
31.1875
31.375
34.375
46.4375
70.25
97.4375
115.1875
123.5625
127.875
127.0625
122.3125
116.0625
108.4375
99.0
89.0625
80.0625
71.9375
64.625
58.5
54.3125
52.1875
51.4375
51.4375
51.8125
52.25
52.4375
52.3125
51.875
51.25
50.375
49.4375
48.5
47.5
46.5625
45.6875
44.75
43.9375
43.1875
42.5
41.8125
41.0625
40.375
39.875
39.5
39.0625
38.5625
38.125
37.75
37.375
37.0625
36.75
36.375
35.9375
35.6875
35.375
34.9375
34.5625
34.1875
34.0
33.6875
33.375
33.0625
32.8125
32.5
32.25
32.0625
31.8125
31.5625
31.375
31.1875
31.0
30.8125
30.625
30.375
30.1875
30.0625
29.875
29.6875
29.5
29.3125
29.125
29.0
28.875
28.75
28.625
28.375
28.1875
28.125
28.0
27.8125
27.625
27.5625
27.4375
27.25
27.125
27.0625
27.0
26.9375
27.3125
31.25
45.8125
72.625
98.875
112.5625
118.875
121.375
116.5625
107.3125
97.1875
87.125
77.375
68.625
61.375
55.625
51.0625
48.1875
47.25
47.3125
47.8125
48.5
49.0625
49.25
49.125
48.8125
48.25
47.625
46.9375
46.1875
45.4375
44.6875
43.8125
43.0625
42.375
41.875
41.3125
40.875
40.5
40.1875
39.75
39.375
39.125
38.9375
38.6875
38.4375
38.125
37.875
37.6875
37.375
37.0
36.625
36.25
35.875
35.4375
35.125
34.8125
34.4375
34.1875
33.9375
33.75
33.5
33.1875
32.9375
32.6875
32.4375
32.1875
32.0625
31.9375
31.75
31.625
32.5625
38.625
54.8125
78.875
101.375
114.3125
120.25
122.6875
120.375
114.875
107.9375
99.375
89.9375
81.0
72.875
65.5
59.1875
54.5625
51.875
50.6875
50.4375
50.625
51.0625
51.3125
51.375
51.125
50.5625
49.875
49.125
48.25
47.3125
46.375
45.5
44.625
43.8125
43.0
42.3125
41.6875
41.125
40.4375
39.8125
39.3125
38.875
38.5625
38.1875
37.8125
37.5
37.125
36.75
36.375
36.125
35.8125
35.5625
35.25
35.0
34.6875
34.375
34.125
33.875
33.625
33.375
33.125
32.8125
32.5625
32.375
32.1875
31.9375
31.75
31.625
31.5625
32.3125
37.5625
53.6875
79.75
104.0
116.75
122.4375
125.0625
122.1875
115.25
107.0625
98.0625
88.75
79.75
71.5625
64.3125
58.1875
53.75
51.3125
50.375
50.25
50.6875
51.125
51.375
51.375
51.125
50.5625
49.875
49.0625
48.1875
47.1875
46.25
45.3125
44.3125
43.5
42.6875
41.9375
41.3125
40.8125
40.25
39.5625
39.0625
38.5625
38.0625
37.75
37.375
37.0625
36.75
36.4375
36.0625
35.75
35.4375
35.125
34.875
34.5625
34.25
33.9375
33.6875
33.4375
33.25
33.0
33.5
38.125
53.3125
77.5625
99.125
111.5625
117.8125
119.625
116.875
110.5625
101.8125
91.875
82.0
73.1875
65.5625
58.875
53.625
50.5625
49.25
49.0
49.3125
50.0625
50.5625
50.875
50.875
50.625
50.1875
49.5625
48.875
48.125
47.3125
46.5
45.6875
44.9375
44.3125
43.75
43.1875
42.625
42.0
41.5
41.0
40.5625
40.125
39.6875
39.3125
38.875
38.4375
38.0625
37.6875
37.375
37.0625
36.75
36.4375
36.0625
35.75
35.5
35.3125
35.0
34.75
34.4375
34.1875
33.9375
33.6875
33.4375
33.1875
32.9375
32.75
32.5625
32.375
32.1875
31.9375
31.75
31.5
31.375
31.25
31.3125
33.25
43.375
67.375
97.5625
117.625
126.25
130.125
128.6875
122.8125
115.3125
106.3125
96.0
85.8125
76.5625
68.3125
61.375
56.0
52.6875
51.3125
51.0625
51.5
52.125
52.5625
52.625
52.375
51.9375
51.25
50.4375
49.5625
48.625
47.75
46.8125
45.9375
45.0625
44.1875
43.375
42.6875
42.0
41.375
40.875
40.3125
39.8125
39.3125
38.875
38.5
38.125
37.75
37.5
37.1875
36.8125
36.5625
36.25
35.875
35.5625
35.375
35.0625
34.75
34.375
34.0625
33.6875
33.4375
33.1875
32.875
32.5625
32.3125
32.125
31.875
31.8125
32.6875
38.9375
56.8125
83.5625
105.9375
117.5625
123.5
125.1875
121.0625
114.125
106.3125
96.9375
86.8125
77.4375
69.1875
62.0625
56.1875
52.3125
50.5625
50.0625
50.1875
50.75
51.25
51.5
51.5
51.125
50.5
49.875
49.0625
48.0625
47.0
45.9375
45.0625
44.3125
43.5
42.625
41.875
41.1875
40.5625
39.9375
39.375
38.875
38.375
37.9375
37.5
37.1875
36.875
36.625
36.25
36.0
35.6875
35.375
35.125
34.9375
34.625
34.375
34.1875
34.0
33.6875
33.4375
33.25
33.0625
32.8125
32.75
32.625
32.5625
32.4375
32.3125
32.3125
32.3125
32.375
32.4375
32.4375
32.375
32.375
32.375
32.4375
32.375
32.25
32.0625
32.0
31.8125
31.625
31.375
31.1875
30.9375
30.75
30.5
30.25
30.0
29.875
29.8125
29.75
29.6875
29.625
30.3125
35.75
52.625
80.375
106.5
119.4375
123.9375
124.1875
117.9375
107.75
97.125
86.8125
77.3125
69.0
62.125
56.5625
52.5
50.3125
49.6875
49.8125
50.3125
50.875
51.3125
51.5
51.1875
50.625
50.0
49.125
48.25
47.375
46.5
45.625
44.6875
43.75
42.9375
42.1875
41.5625
41.0
40.4375
39.9375
39.5
38.9375
38.5
38.125
37.8125
37.5
37.1875
36.875
36.5625
36.3125
35.9375
35.625
35.375
35.125
34.8125
34.5625
34.1875
33.875
33.625
33.4375
33.3125
33.0625
32.75
32.5625
32.3125
32.125
31.875
31.625
31.375
31.3125
31.1875
31.0
30.75
30.5625
30.4375
30.3125
30.125
29.9375
29.75
29.625
29.4375
29.25
29.0625
28.8125
28.5625
28.375
28.3125
28.1875
27.875
27.6875
27.5
27.3125
27.1875
27.1875
27.125
27.125
28.375
35.5
53.8125
80.1875
102.75
114.5
120.375
121.8125
117.625
110.5625
102.375
92.9375
83.0625
74.125
66.5625
60.0625
54.6875
50.9375
49.125
48.5625
48.6875
49.1875
49.8125
50.0625
50.0
49.625
49.0625
48.4375
47.5625
46.6875
45.6875
44.6875
43.75
42.875
42.0625
41.3125
40.625
40.0
39.3125
38.6875
38.1875
37.8125
37.3125
36.875
36.5625
36.1875
35.8125
35.5625
35.25
34.9375
34.6875
34.4375
34.125
33.875
33.625
33.375
33.125
32.875
32.625
32.4375
32.25
32.0
31.8125
31.75
31.6875
31.6875
31.625
31.625
31.625
31.75
31.8125
31.9375
31.9375
32.0625
32.0
32.0
31.875
31.75
31.5625
31.5
31.375
31.1875
30.875
30.5625
30.3125
30.125
29.9375
29.75
29.5
29.3125
29.1875
29.25
30.3125
36.4375
52.4375
76.4375
99.4375
112.0625
117.25
119.0
115.4375
108.0
99.3125
89.625
80.0625
71.8125
64.6875
58.4375
53.375
50.125
48.75
48.4375
48.625
49.1875
49.8125
50.125
50.125
49.75
49.25
48.625
47.8125
46.875
46.0
45.125
44.25
43.375
42.625
41.9375
41.25
40.625
39.9375
39.375
38.875
38.375
38.0
37.625
37.25
36.875
36.5625
36.25
35.9375
35.6875
35.4375
35.1875
34.8125
34.5
34.25
34.0
33.75
33.4375
33.1875
33.0
32.75
32.5
32.1875
32.0
31.8125
31.625
31.375
31.1875
31.0625
30.8125
30.5625
30.3125
30.125
30.0625
29.875
29.75
29.625
29.4375
29.3125
29.125
28.9375
28.8125
28.6875
28.5625
28.4375
28.25
28.125
28.0
27.875
27.625
27.5
27.4375
27.25
27.0
26.8125
26.6875
26.5
26.875
30.4375
42.9375
65.5
90.0
106.0625
114.5
119.625
119.5
114.25
106.8125
98.4375
89.0625
79.5625
71.4375
64.4375
58.3125
53.375
50.0
48.5
48.125
48.3125
48.875
49.25
49.375
49.25
48.9375
48.3125
47.5625
46.75
45.875
44.9375
44.0625
43.125
42.1875
41.3125
40.625
39.875
39.1875
38.625
38.0625
37.5625
37.0
36.5
36.0625
35.625
35.375
35.0625
34.75
34.5
34.3125
34.0
33.75
33.4375
33.1875
32.9375
32.6875
32.375
32.125
31.9375
31.6875
31.4375
31.1875
30.9375
30.6875
30.5
30.3125
30.125
29.9375
29.8125
29.6875
29.5
29.3125
29.1875
29.125
29.0625
29.0
28.9375
28.9375
29.0625
29.1875
29.3125
29.875
33.5625
45.0
64.8125
86.4375
102.25
109.75
112.375
110.875
104.625
95.1875
85.3125
76.4375
68.5625
61.5625
55.75
51.1875
48.3125
47.1875
47.0
47.1875
47.75
48.3125
48.625
48.6875
48.4375
47.9375
47.3125
46.4375
45.625
44.8125
44.0
43.1875
42.375
41.625
40.875
40.25
39.625
39.0
38.5
38.125
37.75
37.25
36.75
36.375
36.125
35.75
35.4375
35.25
34.9375
34.6875
34.375
34.0625
33.8125
33.5625
33.25
33.0
32.8125
32.5625
32.3125
32.0625
31.8125
31.5625
31.375
31.125
30.9375
30.8125
30.625
30.375
30.1875
30.0625
29.9375
29.9375
31.375
39.0625
57.0625
81.75
103.8125
115.875
121.5625
123.6875
121.0625
115.625
109.6875
102.8125
94.5
86.0625
78.1875
70.5625
63.5
57.625
53.625
51.4375
50.5625
50.4375
50.75
51.1875
51.3125
51.125
50.6875
50.125
49.375
48.4375
47.375
46.375
45.4375
44.5625
43.625
42.6875
41.9375
41.1875
40.5625
39.9375
39.25
38.6875
38.125
37.625
37.1875
36.9375
36.5625
36.25
35.875
35.5625
35.25
34.875
34.5625
34.3125
34.0625
33.8125
33.5625
33.1875
32.875
32.5625
32.3125
32.125
31.8125
31.5625
31.25
31.0
30.8125
30.625
30.4375
30.25
30.1875
31.25
37.9375
56.0
81.6875
102.75
113.75
119.0
120.125
116.5
109.5625
101.1875
92.0625
82.6875
73.875
66.375
59.8125
54.375
50.8125
49.3125
48.9375
49.0625
49.5
49.875
50.0625
50.0
49.75
49.25
48.4375
47.5
46.6875
45.75
44.75
43.875
43.125
42.375
41.8125
41.25
40.75
40.3125
39.9375
39.5625
39.25
39.0
38.875
38.6875
38.4375
38.25
38.125
37.875
37.5625
37.375
37.125
36.8125
36.5
36.125
35.75
35.4375
35.1875
34.875
34.5
34.0625
33.8125
33.5
33.25
33.0
32.875
32.6875
32.375
32.125
31.9375
31.75
31.625
31.3125
31.1875
31.0625
30.875
30.6875
30.5
30.25
30.0625
29.9375
29.8125
29.625
29.5
29.375
29.25
29.0625
29.0625
30.4375
38.125
57.625
85.4375
108.375
118.875
124.25
126.5
122.5625
114.875
105.625
95.375
85.3125
76.3125
68.625
62.0
56.4375
52.5
50.5625
49.9375
50.0
50.5
51.0
51.25
51.125
50.75
50.1875
49.5
48.6875
47.8125
46.875
46.0
45.0625
44.25
43.4375
42.625
41.875
41.1875
40.5625
40.0
39.5
39.0
38.5
38.125
37.75
37.3125
36.9375
36.6875
36.375
36.0625
35.75
35.5
35.1875
34.8125
34.5625
34.3125
34.0625
33.8125
33.5625
33.3125
33.0625
32.8125
32.4375
32.1875
32.0
31.8125
31.5625
31.3125
31.0625
30.8125
30.5
30.3125
30.125
29.875
29.6875
29.5
29.25
29.0
28.8125
28.75
28.625
28.375
28.1875
28.125
28.0
27.875
27.6875
27.6875
28.9375
35.875
53.8125
79.875
102.25
113.0
118.0625
120.1875
116.375
108.5
99.375
89.6875
80.0625
71.375
64.125
57.9375
52.9375
49.6875
48.25
47.875
48.0
48.5
49.1875
49.5
49.4375
49.0625
48.5625
47.9375
47.0625
46.1875
45.1875
44.3125
43.375
42.5
41.625
40.875
40.1875
39.5625
39.0
38.375
37.875
37.375
36.9375
36.5
36.125
35.75
35.4375
35.125
34.875
34.5625
34.1875
33.9375
33.6875
33.5
33.1875
32.875
32.6875
32.5625
32.375
32.3125
32.3125
32.3125
32.1875
32.125
32.1875
32.1875
32.125
32.0625
32.0625
32.0
31.9375
31.8125
31.625
31.5
31.3125
31.1875
31.0625
30.8125
30.5625
30.375
30.125
29.875
29.75
29.6875
29.875
32.5
42.75
62.9375
87.5625
106.4375
114.8125
117.5625
116.0
109.6875
100.9375
91.4375
81.9375
73.375
66.125
59.75
54.3125
50.3125
48.1875
47.4375
47.375
47.75
48.375
48.9375
49.125
48.9375
48.5625
48.0625
47.3125
46.5
45.6875
44.875
44.0
43.1875
42.375
41.5625
40.8125
40.1875
39.625
39.125
38.5625
38.0625
37.625
37.125
36.75
36.375
36.125
35.875
35.5625
35.25
34.9375
34.625
34.375
34.125
33.875
33.625
33.375
33.0625
32.8125
32.5625
32.25
32.0625
31.875
31.6875
31.5
31.3125
31.4375
34.125
44.5625
64.75
88.4375
106.1875
115.5625
120.3125
120.1875
115.3125
108.875
101.5
92.625
83.75
75.625
68.0
61.125
55.625
51.9375
49.9375
49.0625
49.125
49.4375
49.6875
49.875
49.75
49.375
48.8125
48.1875
47.375
46.5625
45.5625
44.625
43.6875
42.875
42.0625
41.375
40.75
40.0625
39.4375
38.875
38.25
37.6875
37.25
36.9375
36.5625
36.125
35.8125
35.5
35.1875
34.8125
34.5625
34.25
33.9375
33.625
33.25
33.0
32.875
32.5625
32.3125
32.0
31.6875
31.3125
31.0
30.75
30.5625
30.375
30.0625
29.8125
29.6875
29.5625
29.375
29.25
29.0625
28.875
28.75
28.5625
28.375
28.3125
28.1875
28.0
27.8125
27.625
27.5
27.3125
27.25
27.1875
27.125
27.0625
27.0
26.875
26.875
27.8125
34.0
51.75
78.25
100.4375
110.875
115.375
115.25
108.375
98.4375
88.1875
78.1875
69.4375
62.3125
56.4375
51.75
48.4375
46.9375
46.75
47.1875
47.8125
48.5
48.9375
49.125
48.875
48.3125
47.625
46.875
46.125
45.25
44.375
43.5625
42.75
42.0
41.3125
40.625
40.0
39.4375
39.0
38.5
38.0
37.5625
37.0625
36.625
36.375
36.0625
35.75
35.4375
35.125
34.9375
34.625
34.3125
34.0
33.8125
33.5
33.1875
33.0
32.8125
32.625
32.3125
32.0625
31.8125
31.5625
31.375
31.125
30.875
30.75
30.5625
30.4375
30.1875
29.9375
29.75
29.625
29.5
29.375
29.25
29.0625
28.9375
28.75
28.5625
28.375
28.25
28.125
28.0
27.875
27.8125
27.6875
27.625
27.6875
29.5625
38.25
57.5
82.875
103.5625
114.25
120.0
121.6875
118.5
113.0
106.1875
97.75
88.5625
79.5
71.25
64.0625
58.0
53.1875
50.3125
49.0625
48.8125
49.0
49.375
49.625
49.6875
49.4375
49.0
48.375
47.5625
46.6875
45.75
44.8125
43.9375
43.125
42.25
41.4375
40.6875
40.0625
39.375
38.8125
38.3125
37.8125
37.3125
36.8125
36.3125
35.9375
35.6875
35.4375
35.0625
34.8125
34.5
34.1875
33.9375
33.6875
33.3125
33.125
32.875
32.625
32.375
32.125
31.8125
31.5625
31.3125
31.0625
30.875
30.6875
30.4375
30.3125
30.1875
30.0625
29.9375
29.8125
30.75
36.8125
53.0625
76.4375
96.5625
107.4375
112.1875
113.75
111.125
104.75
96.5
87.6875
79.0
71.125
64.25
58.3125
53.4375
50.375
49.0625
48.5625
48.6875
49.3125
49.875
50.0625
49.9375
49.625
49.1875
48.5
47.625
46.8125
45.9375
45.0625
44.25
43.375
42.625
41.9375
41.3125
40.6875
40.0625
39.5625
39.0
38.5
38.125
37.6875
37.375
37.0
36.6875
36.3125
36.0625
35.75
35.5
35.1875
34.9375
34.625
34.375
34.6875
38.5
51.4375
73.5625
96.75
112.25
119.4375
122.375
121.75
117.9375
112.125
104.75
96.5
88.4375
80.375
72.5
65.3125
59.125
54.625
52.0625
50.875
50.6875
51.0
51.375
51.5
51.4375
51.0625
50.625
50.0
49.125
48.0625
47.0625
46.125
45.25
44.5
43.75
43.0
42.25
41.5
40.8125
40.1875
39.75
39.25
38.75
38.3125
37.9375
37.625
37.25
36.875
36.5625
36.1875
35.9375
35.625
35.3125
35.0
34.6875
34.375
34.125
33.875
33.75
33.625
33.5625
35.25
44.9375
67.75
96.3125
116.4375
125.375
128.875
126.875
120.125
112.0625
103.1875
93.1875
83.0625
74.0
66.3125
59.75
54.75
51.6875
50.375
50.125
50.5
51.0
51.3125
51.375
51.125
50.625
49.9375
49.125
48.25
47.3125
46.375
45.375
44.5
43.5625
42.75
42.0
41.3125
40.6875
40.125
39.5
38.9375
38.4375
37.9375
37.5625
37.25
36.9375
36.625
36.25
36.0
35.625
35.25
35.0
34.75
34.5625
34.25
33.9375
33.625
33.3125
33.0625
32.875
32.75
32.5
32.1875
31.9375
31.6875
31.5
31.25
31.125
30.9375
30.6875
30.5
30.3125
30.125
30.0
29.8125
29.6875
29.5
29.3125
29.1875
29.0
28.875
28.75
28.625
28.5625
29.1875
34.6875
52.875
82.4375
107.1875
117.8125
122.1875
122.5
115.5625
104.4375
93.4375
83.625
74.375
66.375
59.8125
54.625
50.9375
49.1875
48.75
49.0625
49.6875
50.3125
50.6875
50.75
50.625
50.25
49.5625
48.75
47.875
47.0
46.125
45.25
44.3125
43.5
42.75
42.0
41.4375
40.8125
40.125
39.5625
39.0625
38.625
38.125
37.75
37.4375
37.0
36.6875
36.4375
36.125
35.8125
35.5625
35.3125
35.125
34.75
34.375
34.0625
33.8125
33.5625
33.3125
33.0625
32.8125
32.5625
32.375
32.375
34.1875
42.9375
62.5625
87.625
107.25
117.125
122.4375
123.875
119.625
112.5
105.125
96.6875
87.75
79.3125
71.4375
64.125
58.0625
53.9375
51.625
50.4375
50.25
50.5
50.75
50.8125
50.6875
50.375
49.875
49.25
48.5
47.625
46.75
45.8125
44.9375
44.0625
43.3125
42.6875
41.9375
41.25
40.5625
40.0
39.4375
38.9375
38.5
38.0625
37.6875
37.3125
36.9375
36.5
36.1875
36.0
35.6875
35.3125
35.0625
34.8125
34.5625
34.1875
33.9375
33.6875
33.375
33.0625
32.8125
32.625
32.3125
32.0
31.625
31.375
31.25
31.0625
30.875
30.6875
30.4375
30.25
30.0625
29.8125
29.6875
29.5625
29.4375
29.25
29.0
28.8125
28.6875
28.5625
28.4375
28.3125
28.25
28.0625
27.875
27.6875
27.5625
27.5
27.4375
27.3125
27.1875
27.125
27.0625
27.0
26.875
26.75
26.8125
28.5
37.4375
59.8125
89.875
110.9375
118.625
121.6875
120.0625
112.25
101.875
91.6875
81.8125
72.4375
64.5625
58.25
53.0625
49.4375
47.6875
47.375
47.5625
48.125
48.75
49.0625
49.0625
48.8125
48.5
47.875
47.0625
46.25
45.4375
44.625
43.75
42.875
42.1875
41.375
40.625
40.0
39.4375
39.0
38.5625
38.0625
37.5625
37.25
37.0
36.6875
36.4375
36.25
36.0625
35.875
35.625
35.375
35.25
35.125
35.0
34.75
34.5625
34.375
34.1875
33.9375
33.75
33.5625
33.25
33.0
32.75
32.5
32.3125
32.125
31.875
31.625
31.4375
31.1875
31.0
30.75
30.5625
30.375
30.25
30.0625
29.9375
29.75
29.5
29.3125
29.3125
29.1875
29.0625
29.25
32.3125
43.8125
65.5
90.6875
108.125
115.4375
118.75
117.875
112.3125
104.875
96.25
86.5
77.125
69.1875
62.3125
56.25
51.875
49.4375
48.5
48.25
48.5625
49.0625
49.5
49.5
49.3125
48.9375
48.3125
47.6875
46.9375
46.125
45.25
44.4375
43.625
42.8125
42.0625
41.375
40.8125
40.25
39.625
39.0
38.4375
38.0625
37.6875
37.25
36.875
36.625
36.25
35.875
35.5625
35.25
34.9375
34.625
34.4375
34.1875
33.9375
33.6875
33.375
33.125
32.875
32.625
32.4375
32.25
32.0
31.75
31.5625
31.25
31.0
30.8125
30.6875
30.5625
30.375
30.1875
29.9375
29.6875
29.5
29.25
29.0625
28.875
28.6875
28.625
29.625
35.75
52.5
77.625
100.0625
111.9375
117.875
120.4375
116.6875
108.875
100.6875
91.875
82.625
74.0625
66.5
59.8125
54.3125
50.625
48.875
48.3125
48.375
48.9375
49.375
49.625
49.5625
49.375
48.9375
48.3125
47.5625
46.6875
45.75
44.875
43.9375
43.1875
42.5
41.875
41.125
40.375
39.75
39.1875
38.625
38.125
37.625
37.25
36.875
36.5
36.1875
36.0
35.75
35.4375
35.125
34.875
34.625
34.375
34.0625
33.8125
33.625
33.375
33.0625
32.8125
32.5625
32.3125
32.0625
31.9375
31.75
31.5
31.375
31.25
31.125
31.0
30.9375
30.9375
30.875
30.8125
30.8125
30.75
30.75
30.6875
30.75
30.875
31.0
32.4375
40.125
57.8125
81.6875
101.875
112.25
116.5
116.875
111.75
102.75
92.8125
83.25
74.1875
66.1875
59.4375
54.125
50.625
48.875
48.25
48.25
48.875
49.5
49.9375
50.0625
49.9375
49.4375
48.75
48.0
47.375
46.5625
45.6875
44.8125
44.0625
43.3125
42.625
41.875
41.25
40.8125
40.25
39.6875
39.125
38.6875
38.1875
37.8125
37.4375
37.1875
36.8125
36.4375
36.1875
35.9375
35.6875
35.375
35.0625
34.8125
34.5
34.25
34.0
33.8125
33.5625
33.3125
33.0625
32.9375
32.625
32.375
32.1875
32.0
31.75
31.5625
31.5
31.3125
31.1875
31.0
30.75
30.5
30.375
30.25
30.125
30.0625
31.125
37.5625
54.6875
80.5
104.5625
118.1875
125.3125
128.6875
126.5
120.875
114.0
105.4375
95.625
85.875
76.875
68.6875
61.5625
56.25
53.0
51.375
50.8125
50.9375
51.3125
51.6875
51.8125
51.6875
51.375
50.8125
50.125
49.3125
48.4375
47.375
46.375
45.5
44.625
43.6875
42.9375
42.25
41.625
40.875
40.25
39.75
39.1875
38.6875
38.25
38.0
37.6875
37.3125
36.9375
36.625
36.3125
36.0625
35.8125
35.5
35.1875
34.875
34.625
34.375
34.0625
33.75
33.5
33.3125
33.125
32.875
32.6875
32.5
32.3125
32.125
31.875
31.6875
31.5
31.25
31.1875
31.0625
30.9375
30.75
30.5
30.3125
30.1875
30.0
29.9375
29.8125
29.75
30.8125
37.3125
54.9375
80.4375
102.3125
114.3125
120.9375
123.125
119.1875
111.0625
101.0625
90.375
80.25
71.5
63.9375
57.6875
53.0625
50.375
49.375
49.25
49.625
50.3125
51.0
51.5
51.5625
51.3125
50.8125
50.25
49.6875
49.0625
48.1875
47.3125
46.5625
45.8125
45.0625
44.3125
43.5625
42.875
42.25
41.625
41.0625
40.5
40.0625
39.6875
39.3125
38.875
38.5625
38.25
37.875
37.5625
37.25
36.9375
36.6875
36.375
36.125
35.8125
35.5625
35.3125
35.0
34.6875
34.4375
34.25
34.0
33.75
33.5
33.1875
32.9375
32.6875
32.5625
32.4375
32.25
32.0
31.8125
31.6875
31.5
31.5625
33.1875
41.1875
60.1875
86.4375
109.0625
121.625
128.4375
131.3125
128.8125
122.6875
114.875
105.8125
95.625
85.5
76.3125
68.1875
61.3125
56.3125
53.5
52.25
51.9375
52.375
52.8125
53.0625
53.1875
53.0625
52.625
52.0
51.3125
50.4375
49.4375
48.4375
47.5
46.5625
45.6875
44.8125
44.0
43.25
42.5
41.9375
41.375
40.875
40.4375
39.875
39.375
39.0625
38.75
38.4375
38.0625
37.8125
37.5
37.1875
36.75
36.375
36.0625
35.75
35.4375
35.1875
34.875
34.5
34.125
33.75
33.5
33.25
33.0625
32.875
32.6875
32.4375
32.25
32.0625
31.875
31.6875
31.4375
31.25
31.1875
31.1875
32.5
40.4375
60.375
87.5625
109.625
121.125
127.375
129.125
124.5625
115.9375
106.0625
95.625
85.1875
75.8125
67.75
60.8125
55.4375
52.1875
50.8125
50.4375
50.625
51.3125
51.875
52.125
52.125
51.9375
51.5
50.75
49.875
49.0
48.0
46.9375
45.875
44.9375
44.1875
43.375
42.625
42.125
41.5
40.8125
40.25
39.75
39.3125
38.875
38.625
38.25
37.875
37.5
37.25
37.0625
36.8125
36.4375
36.125
35.875
35.6875
35.5625
35.4375
35.3125
35.125
34.9375
34.8125
34.6875
34.5625
34.4375
34.375
34.25
34.1875
34.0625
33.9375
33.8125
33.6875
33.5625
33.5
33.4375
34.3125
40.625
57.3125
82.25
105.375
118.4375
124.3125
126.25
122.625
113.75
102.5625
91.625
81.5625
72.5625
64.875
58.5
53.875
51.375
50.4375
50.3125
50.75
51.5625
52.3125
52.625
52.5
52.125
51.5
50.8125
49.9375
49.0
48.0625
47.0625
46.125
45.3125
44.4375
43.5
42.8125
42.25
41.625
41.125
40.5625
40.0625
39.5625
39.25
38.9375
38.625
38.1875
37.8125
37.5
37.25
37.0
36.75
36.5
36.1875
35.9375
35.5625
35.25
35.0
34.8125
34.5625
34.3125
34.125
33.875
33.6875
33.5625
34.75
41.75
60.0625
86.3125
109.25
122.75
130.25
133.0625
130.0625
123.3125
115.0
105.5
95.25
85.75
77.1875
69.25
62.3125
57.1875
54.25
52.875
52.625
53.0
53.5
53.875
54.0
53.8125
53.3125
52.6875
51.875
50.875
49.8125
48.875
47.875
46.875
45.875
45.0625
44.3125
43.5
42.6875
41.9375
41.375
40.8125
40.375
39.875
39.3125
38.875
38.5
38.125
37.8125
37.5
37.25
37.125
36.75
36.3125
36.0
35.75
35.5
35.25
34.9375
34.6875
34.4375
34.1875
33.875
33.625
33.375
33.125
32.875
32.6875
32.5625
32.5
32.5
33.875
42.1875
63.25
91.75
113.8125
125.3125
131.0625
131.375
125.6875
116.5625
105.75
94.5625
84.0
74.5625
66.4375
59.75
54.875
52.25
51.4375
51.4375
52.0
52.8125
53.375
53.5625
53.375
52.9375
52.25
51.375
50.375
49.375
48.375
47.3125
46.3125
45.375
44.625
44.0
43.625
43.8125
46.3125
53.75
66.25
79.3125
88.4375
93.6875
96.125
95.3125
91.1875
84.6875
76.9375
68.6875
60.875
54.5
50.1875
47.625
46.1875
45.9375
46.4375
47.125
47.75
48.125
48.3125
48.375
48.1875
47.6875
47.0625
46.5
45.8125
45.125
44.4375
43.8125
43.125
42.375
41.625
41.0625
40.5
40.0
39.5625
39.125
38.6875
38.3125
37.9375
37.5625
37.25
37.0
36.875
36.625
36.375
36.125
35.8125
35.625
35.3125
35.0625
34.875
34.6875
34.5
34.25
34.0
33.75
33.5625
33.3125
33.125
33.0
32.875
33.0
35.625
49.9375
82.75
119.0625
138.0
144.4375
146.125
141.1875
131.5
120.0625
107.625
95.0625
83.6875
74.25
66.5
60.3125
56.25
54.4375
54.125
54.6875
55.625
56.3125
56.5625
56.5
56.0
55.1875
54.25
53.1875
52.125
51.0
49.75
48.5625
47.5625
46.625
45.6875
44.875
44.125
43.5625
42.9375
42.375
41.8125
41.375
40.9375
40.5625
40.1875
39.8125
39.5
39.25
38.875
38.5
38.1875
37.8125
37.5625
37.3125
37.0625
36.8125
36.4375
36.0625
35.75
35.4375
35.125
34.875
34.5625
34.1875
34.0
33.6875
33.5
34.375
41.3125
62.3125
94.3125
119.6875
131.4375
137.125
137.875
131.875
122.0
111.0625
99.125
87.5
77.6875
69.375
62.4375
57.4375
54.8125
53.8125
53.8125
54.5
55.1875
55.5
55.5625
55.375
54.8125
54.0625
53.125
52.0625
50.9375
49.8125
48.75
47.8125
46.875
45.9375
45.0
44.1875
43.5
42.875
42.3125
41.75
41.25
40.8125
40.375
39.9375
39.625
39.3125
39.0
38.6875
38.4375
38.125
37.8125
37.5625
37.25
37.0
36.75
36.4375
36.1875
35.9375
35.6875
35.375
35.125
34.875
34.625
34.4375
34.3125
34.1875
34.125
34.9375
41.25
60.6875
90.25
114.1875
126.25
132.25
132.6875
126.4375
116.125
104.5625
93.0
82.25
72.875
65.0625
58.875
54.8125
53.0625
52.875
53.4375
54.375
55.25
55.75
55.75
55.4375
54.75
53.875
52.9375
51.9375
50.9375
49.8125
48.75
47.75
46.875
45.9375
45.0625
44.3125
43.8125
43.3125
42.75
42.1875
41.625
41.125
40.75
40.3125
40.0
39.75
39.5
39.125
38.75
38.5
38.1875
37.875
37.5625
37.25
36.9375
36.6875
36.5
36.125
35.8125
35.5625
35.375
35.125
34.8125
34.5625
34.4375
34.25
34.3125
37.0625
49.5625
76.0625
106.625
126.6875
136.1875
140.75
139.5
132.625
124.3125
115.625
105.1875
94.1875
84.125
75.0625
67.125
61.0625
57.5
55.875
55.5625
55.875
56.4375
56.8125
56.9375
56.6875
56.0
55.125
54.25
53.3125
52.1875
50.9375
49.75
48.6875
47.75
46.8125
46.0
45.25
44.5625
43.75
43.0625
42.5625
42.0625
41.625
41.1875
40.75
40.3125
39.9375
39.5625
39.1875
38.8125
38.5
38.125
37.75
37.375
37.0
36.625
36.3125
35.9375
35.6875
35.375
35.0625
34.8125
34.5625
34.25
34.3125
37.0
49.375
75.8125
105.0625
123.375
132.4375
136.5625
134.4375
127.4375
118.125
107.875
97.0
86.5625
77.125
68.875
61.9375
57.1875
54.75
53.8125
53.875
54.5
55.125
55.5
55.5
55.1875
54.4375
53.5625
52.6875
51.5625
50.375
49.125
48.0625
47.125
46.1875
45.375
44.625
43.8125
43.125
42.375
41.75
41.3125
40.875
40.4375
39.9375
39.5625
39.25
38.9375
38.6875
38.375
38.0625
37.75
37.5
37.1875
36.875
36.5625
36.3125
36.0
35.6875
35.4375
35.1875
34.9375
34.8125
34.6875
34.5625
34.625
36.9375
48.0625
71.9375
99.625
118.5
128.375
132.875
130.75
122.875
111.75
100.0
88.875
78.8125
70.1875
63.0625
57.5
54.3125
53.1875
53.125
53.6875
54.5
55.25
55.5
55.3125
54.8125
54.0
53.0
51.9375
50.875
49.75
48.6875
47.6875
46.75
45.9375
45.1875
44.4375
43.75
43.0
42.375
41.875
41.3125
40.8125
40.375
40.0
39.6875
39.375
39.0
38.6875
38.375
37.9375
37.75
37.4375
37.125
36.875
36.5
36.1875
35.9375
35.6875
35.5
35.25
35.0
34.75
34.5625
34.75
38.375
52.625
79.5
107.625
125.5625
135.0625
139.4375
137.375
130.875
122.3125
112.5
102.0625
91.75
82.0625
73.125
65.375
59.5
56.125
54.6875
54.625
55.25
55.875
56.3125
56.3125
56.0
55.375
54.5
53.4375
52.3125
51.125
49.9375
48.8125
47.8125
46.875
46.0
45.1875
44.3125
43.5625
42.875
42.3125
41.8125
41.3125
40.75
40.375
40.0
39.5625
39.125
38.6875
38.3125
37.9375
37.5625
37.1875
36.875
36.5
36.125
35.8125
35.5
35.25
35.0
34.8125
34.5
34.1875
33.9375
33.625
33.375
33.1875
33.0
32.875
32.625
32.5625
33.375
40.25
61.0625
92.8125
118.1875
130.375
135.8125
135.25
128.625
119.25
109.0
98.0625
87.3125
78.0
69.8125
62.5625
57.25
54.4375
53.3125
53.0625
53.5
54.0625
54.375
54.375
54.0625
53.5625
52.75
51.875
50.9375
49.8125
48.75
47.6875
46.6875
45.75
44.8125
44.0
43.25
42.5625
41.875
41.1875
40.6875
40.1875
39.75
39.3125
38.9375
38.5
38.25
38.0
37.75
37.5
37.25
37.0
36.75
36.625
36.5
36.3125
36.125
35.9375
35.8125
35.625
35.4375
35.25
35.125
35.0
34.75
34.5625
34.4375
34.1875
34.0
33.75
33.5625
33.375
33.25
33.3125
36.0625
47.875
72.0625
100.1875
119.6875
129.3125
132.75
129.5
120.9375
110.1875
98.9375
88.0625
78.1875
69.625
62.5
56.6875
52.9375
51.4375
51.3125
51.875
52.75
53.5
53.8125
53.6875
53.25
52.625
51.75
50.75
49.8125
48.6875
47.625
46.5625
45.625
44.6875
43.9375
43.25
42.5625
41.875
41.25
40.6875
40.1875
39.6875
39.1875
38.8125
38.5
38.1875
37.875
37.5
37.25
36.9375
36.625
36.3125
36.0625
35.75
35.375
35.0625
34.8125
34.5625
34.3125
34.0625
33.8125
33.625
33.3125
33.0625
32.8125
32.625
32.4375
32.1875
32.0
31.8125
31.6875
31.4375
31.25
31.125
30.875
30.6875
30.625
30.5625
30.4375
30.5
32.8125
43.6875
67.6875
97.125
117.375
126.625
131.0625
130.375
124.5
116.25
106.3125
95.4375
85.3125
75.9375
67.5625
60.5
55.25
52.25
51.0625
51.0
51.6875
52.375
52.875
52.9375
52.75
52.25
51.5
50.625
49.6875
48.5
47.3125
46.25
45.3125
44.375
43.5
42.6875
41.9375
41.25
40.5625
40.0
39.5
39.0625
38.625
38.25
37.8125
37.4375
37.0
36.6875
36.375
36.125
35.875
35.625
35.3125
35.0
34.6875
34.375
34.125
33.875
33.5625
33.25
33.0
32.8125
32.5
32.1875
31.9375
31.8125
31.5625
31.3125
31.125
31.0
30.8125
30.625
30.4375
30.1875
30.0
29.8125
29.6875
29.5
29.4375
29.375
29.3125
29.3125
29.25
29.25
29.5625
32.4375
43.8125
66.8125
93.625
111.9375
120.0625
123.4375
121.75
114.1875
103.9375
93.1875
82.4375
72.9375
64.875
58.125
53.0
50.0
48.875
48.75
49.1875
50.0
50.6875
51.1875
51.25
50.9375
50.375
49.5625
48.75
47.875
46.9375
45.9375
44.9375
44.125
43.25
42.4375
41.75
41.0625
40.5
39.9375
39.375
38.9375
38.5
38.0625
37.6875
37.25
36.9375
36.625
36.3125
36.0625
35.75
35.4375
35.125
34.875
34.5625
34.25
34.0
33.75
33.5625
33.25
33.0
32.75
32.5
32.25
32.1875
32.75
37.5625
52.1875
76.0625
100.0625
115.8125
124.125
127.4375
125.125
119.4375
112.75
104.9375
96.25
87.125
78.5
70.5
63.125
57.1875
53.4375
51.5
50.6875
50.8125
51.375
51.8125
52.0625
52.0
51.6875
51.0625
50.1875
49.3125
48.25
47.25
46.3125
45.3125
44.4375
43.5
42.75
42.0
41.25
40.5625
40.0
39.4375
38.8125
38.375
37.9375
37.4375
37.0625
36.6875
36.375
36.0625
35.625
35.25
34.9375
34.625
34.375
34.125
33.875
33.625
33.375
33.0625
32.8125
32.5625
32.3125
32.125
31.8125
31.5
31.25
31.125
30.875
30.625
30.4375
30.3125
30.1875
29.9375
29.6875
29.5
29.3125
29.1875
29.0625
28.9375
28.75
28.5625
28.5625
28.5
28.75
32.3125
46.25
72.75
100.0625
115.5625
122.4375
125.125
121.375
112.4375
102.0625
91.3125
80.625
71.3125
63.6875
57.25
52.3125
49.5
48.5625
48.625
49.125
49.6875
50.3125
50.6875
50.6875
50.25
49.6875
48.9375
48.0
47.0625
46.1875
45.1875
44.375
43.625
42.875
42.1875
41.5
40.9375
40.4375
39.9375
39.4375
39.0
38.75
38.4375
38.1875
37.9375
37.75
37.5
37.1875
36.875
36.625
36.375
36.0625
35.75
35.4375
35.125
34.75
34.4375
34.1875
33.9375
33.6875
33.375
33.125
32.875
32.6875
32.4375
33.0
37.625
51.9375
75.5
99.25
114.125
121.625
125.0625
123.3125
117.125
108.9375
99.9375
90.125
80.6875
72.25
64.8125
58.4375
53.875
51.375
50.1875
50.0625
50.625
51.1875
51.5625
51.6875
51.5
51.0
50.375
49.5
48.5625
47.5
46.5
45.5625
44.6875
43.6875
42.9375
42.25
41.4375
40.6875
40.125
39.5625
39.0625
38.625
38.3125
38.0
37.625
37.125
36.8125
36.5625
36.25
35.9375
35.625
35.3125
35.0
34.75
34.4375
34.125
33.8125
33.625
33.4375
33.125
32.8125
32.5625
32.3125
32.1875
31.9375
31.6875
31.5
31.375
31.1875
30.9375
30.8125
30.625
31.875
39.5
59.4375
87.6875
110.3125
121.75
127.375
128.0
122.4375
113.375
103.5
93.375
83.3125
74.375
66.5625
59.8125
54.6875
51.5
50.1875
49.875
50.375
51.125
51.6875
51.875
51.75
51.375
50.6875
49.8125
48.875
47.8125
46.6875
45.625
44.625
43.8125
43.0
42.1875
41.4375
40.8125
40.1875
39.625
39.125
38.625
38.125
37.75
37.375
37.0
36.6875
36.5
36.25
35.875
35.5625
35.3125
35.0625
34.6875
34.4375
34.1875
33.9375
33.625
33.4375
33.125
32.8125
32.5625
32.4375
32.1875
31.875
31.6875
31.5
31.3125
31.125
30.9375
30.75
30.5625
30.375
30.25
30.1875
30.1875
32.375
42.5625
65.25
92.8125
111.625
119.75
122.6875
120.125
112.0
101.5625
90.9375
81.0625
72.125
64.5
58.25
53.3125
50.3125
49.3125
49.3125
49.9375
50.9375
51.75
52.0625
52.0625
51.625
50.9375
50.0625
49.1875
48.1875
47.1875
46.125
45.1875
44.375
43.5
42.6875
42.0625
41.4375
40.875
40.375
39.875
39.3125
38.875
38.5625
38.25
37.875
37.5
37.1875
36.9375
36.625
36.1875
35.875
35.625
35.375
35.1875
34.9375
34.625
34.375
34.0625
33.75
33.5
33.25
33.0
32.8125
32.5625
32.3125
32.1875
32.0625
31.875
32.125
35.5625
48.4375
72.5625
99.0625
116.5625
125.1875
129.4375
128.625
123.4375
116.125
107.6875
98.1875
88.3125
79.3125
71.375
64.25
58.625
55.0
53.1875
52.5625
52.8125
53.3125
53.625
53.625
53.375
52.875
52.3125
51.5
50.4375
49.375
48.375
47.375
46.4375
45.5625
44.6875
43.9375
43.1875
42.4375
41.8125
41.125
40.625
40.1875
39.8125
39.4375
39.0625
38.625
38.1875
37.75
37.375
37.0625
36.625
36.25
36.0
35.6875
35.375
35.25
36.5625
44.25
63.5
89.5
110.4375
121.9375
127.5625
128.125
123.25
115.0
106.0
96.8125
87.375
78.5
70.5
63.4375
57.9375
54.5625
52.875
52.375
52.6875
53.1875
53.5
53.5625
53.375
52.875
52.125
51.25
50.1875
49.125
48.0625
47.0625
46.125
45.4375
44.6875
43.9375
43.125
42.3125
41.625
41.0625
40.5625
40.0625
39.5625
39.125
38.8125
38.375
38.0625
37.8125
37.5
37.1875
36.8125
36.5
36.25
36.0625
35.875
35.5625
35.25
35.0
34.8125
34.5625
34.25
33.9375
33.75
33.625
33.4375
33.25
33.0
32.8125
32.625
32.5
32.4375
32.375
32.5
35.375
48.0
74.125
102.625
120.375
128.375
130.5
125.8125
115.25
102.9375
91.25
80.625
71.375
63.875
58.0
53.8125
51.75
51.375
51.875
52.8125
53.75
54.4375
54.625
54.375
53.875
53.0625
52.0625
51.0
50.0
49.0
47.9375
46.9375
46.0
45.25
44.4375
43.75
43.125
42.5
41.9375
41.4375
40.9375
40.4375
40.125
39.75
39.375
39.0625
38.75
38.4375
38.125
37.9375
37.625
37.25
37.0
36.6875
36.4375
36.125
35.875
35.625
35.4375
35.1875
34.875
34.5625
34.3125
34.125
33.875
33.6875
33.5
33.3125
33.25
33.0625
32.9375
33.625
39.3125
57.3125
86.5625
113.4375
127.5
133.4375
135.875
134.0
128.625
121.375
112.5
102.375
91.875
81.875
72.875
65.25
59.5625
56.3125
55.0
54.75
55.25
55.8125
56.0625
56.0625
55.8125
55.25
54.5
53.625
52.625
51.5
50.4375
49.375
48.3125
47.4375
46.5
45.6875
45.0
44.25
43.5
42.8125
42.25
41.8125
41.375
40.875
40.5
40.0625
39.6875
39.25
38.875
38.4375
38.0625
37.8125
37.5
37.125
36.6875
36.375
36.0625
35.8125
35.5625
35.25
35.0
34.6875
34.375
34.125
33.9375
33.6875
33.5
33.25
33.0
32.8125
32.6875
32.5625
32.375
32.625
35.9375
49.375
76.125
104.375
121.6875
130.5
134.375
131.8125
124.875
115.875
105.375
94.5625
84.4375
75.4375
67.5
60.6875
55.875
53.5625
52.875
53.125
53.8125
54.5
54.875
54.9375
54.6875
54.0625
53.1875
52.3125
51.25
50.125
49.125
48.125
47.1875
46.25
45.4375
44.625
43.875
43.1875
42.5
42.0
41.4375
40.9375
40.5
40.125
39.875
39.5625
39.25
39.0
38.6875
38.5
38.25
38.0625
38.0
37.875
37.75
37.5625
37.5
37.5
37.4375
37.25
37.125
37.0
36.75
36.5625
36.3125
36.125
35.9375
35.6875
35.375
35.0625
34.8125
34.9375
37.6875
49.4375
73.25
100.75
119.875
129.625
134.25
132.875
126.0
116.3125
105.375
94.125
83.625
74.5
66.6875
60.4375
56.25
54.25
53.6875
53.9375
54.5625
55.25
55.5625
55.5625
55.1875
54.625
53.8125
52.9375
51.875
50.8125
49.8125
48.8125
47.875
46.875
45.9375
45.1875
44.5
43.8125
43.125
42.5
42.0
41.5
41.125
40.75
40.3125
39.9375
39.625
39.25
39.0
38.625
38.25
38.0
37.6875
37.3125
37.0
36.75
36.5625
36.3125
36.0
35.75
35.4375
35.125
34.9375
34.75
34.4375
34.25
34.0625
33.875
33.6875
34.0625
38.1875
53.0
80.0625
107.5
123.875
132.25
136.75
135.1875
128.9375
121.125
112.375
102.125
91.375
81.6875
72.875
65.25
59.75
56.6875
55.375
55.0625
55.5
55.9375
56.125
56.0
55.6875
55.0625
54.25
53.3125
52.25
51.125
49.9375
48.9375
48.0
47.0625
46.125
45.3125
44.625
43.875
43.125
42.5
41.9375
41.4375
41.0
40.5
40.0625
39.6875
39.3125
39.0625
38.8125
38.5
38.25
37.9375
37.625
37.25
36.9375
36.6875
36.4375
36.1875
35.9375
35.625
35.3125
35.0625
34.8125
34.5625
34.3125
34.125
33.9375
33.6875
33.5
33.25
33.1875
33.0
33.0625
35.4375
46.9375
71.8125
99.75
117.5
126.625
131.125
128.9375
121.25
110.75
99.375
88.6875
79.3125
71.125
64.0625
58.625
55.5
54.1875
53.875
54.3125
55.0
55.5625
55.75
55.5
54.9375
54.1875
53.25
52.25
51.1875
50.0625
49.0625
48.0625
47.25
46.5
45.75
45.0
44.3125
43.5625
43.0625
42.5
41.9375
41.4375
41.0
40.6875
40.3125
39.9375
39.5
39.1875
38.875
38.625
38.3125
38.0
37.75
37.5
37.1875
36.8125
36.4375
36.125
35.875
35.625
35.375
35.125
35.0
34.8125
34.4375
34.1875
34.0
33.875
33.75
33.9375
37.25
49.9375
75.25
103.9375
123.375
133.1875
137.5
136.1875
130.875
123.6875
114.875
105.125
95.4375
86.0
76.9375
68.875
62.4375
58.25
56.0625
55.3125
55.375
55.75
56.0
56.0625
55.875
55.3125
54.5
53.625
52.5625
51.5
50.375
49.3125
48.3125
47.3125
46.375
45.5625
44.8125
44.0
43.3125
42.5625
41.9375
41.3125
40.875
40.4375
40.0
39.625
39.375
39.0
38.625
38.375
38.125
37.8125
37.4375
37.1875
37.0
36.625
36.3125
36.0
35.8125
35.5
35.1875
34.9375
34.625
34.3125
34.0625
33.8125
33.5625
33.4375
33.3125
33.6875
37.875
53.375
81.0625
107.375
122.125
129.5
132.1875
129.125
122.0625
113.0625
102.5625
91.5625
81.4375
72.4375
64.5
58.4375
54.8125
53.5
53.5625
54.1875
55.125
55.75
56.0
55.875
55.5
55.0
54.3125
53.375
52.4375
51.4375
50.4375
49.4375
48.4375
47.5625
46.75
45.9375
45.1875
44.4375
43.75
43.0625
42.4375
41.875
41.375
40.9375
40.5
40.125
39.6875
39.25
38.8125
38.4375
38.125
37.875
37.75
37.5625
37.25
37.0
36.8125
36.5625
36.3125
36.0
35.5625
35.1875
34.9375
34.75
34.5
34.5625
36.25
45.3125
67.25
96.5625
118.9375
130.5625
136.1875
136.5
132.0625
125.3125
116.8125
106.8125
96.5625
86.625
77.4375
69.1875
62.4375
57.875
55.5625
54.875
55.1875
55.875
56.375
56.4375
56.1875
55.6875
54.9375
54.0
52.9375
51.875
50.8125
49.8125
48.8125
47.8125
46.875
46.0625
45.3125
44.5625
43.875
43.25
42.6875
42.125
41.5625
41.125
40.75
40.3125
39.9375
39.5625
39.25
38.9375
38.5625
38.1875
37.875
37.625
37.375
37.125
36.8125
36.4375
36.1875
35.9375
36.75
43.375
62.4375
90.625
114.1875
127.0
133.0625
133.9375
129.5
122.0
113.625
104.3125
93.9375
83.875
74.875
66.875
60.375
56.375
54.625
54.1875
54.5625
55.1875
55.6875
55.9375
55.75
55.25
54.5
53.5
52.3125
51.125
49.9375
48.75
47.75
46.8125
46.0
45.1875
44.375
43.6875
43.0
42.375
41.8125
41.3125
40.8125
40.3125
39.9375
39.4375
39.125
38.875
38.625
38.25
37.875
37.5
37.25
36.9375
36.6875
36.375
36.0
35.6875
35.4375
35.25
35.0625
34.8125
34.75
35.75
43.1875
64.0625
93.1875
115.375
126.8125
132.0625
131.375
125.0625
115.3125
103.875
92.5625
82.3125
73.5
66.0625
60.125
56.3125
54.75
54.4375
54.8125
55.5
56.1875
56.5625
56.375
55.875
55.125
54.25
53.125
52.0
50.8125
49.6875
48.625
47.5625
46.5625
45.75
45.0
44.4375
43.8125
43.1875
42.5625
42.0625
41.625
41.125
40.625
40.3125
40.0625
39.6875
39.3125
39.0
38.6875
38.375
38.0625
37.75
37.5
37.125
36.75
36.375
36.1875
36.0
35.6875
35.4375
35.25
35.125
36.8125
46.375
70.0625
101.0
124.0
135.5625
140.625
139.625
134.5
127.25
117.5625
106.875
96.625
86.75
77.375
69.0
62.3125
58.0
55.9375
55.4375
55.9375
56.5625
57.0625
57.3125
57.1875
56.5
55.625
54.625
53.5
52.25
51.0
49.9375
48.875
47.8125
46.8125
45.875
45.0625
44.375
43.6875
43.0625
42.5625
42.0
41.5
41.0
40.5625
40.1875
39.875
39.5625
39.25
38.9375
38.625
38.25
37.875
37.625
37.375
37.0625
36.6875
36.4375
36.1875
35.875
35.5
35.1875
34.9375
34.75
34.4375
34.5
37.8125
51.875
79.625
108.5625
125.875
134.625
138.3125
134.75
125.8125
116.0625
105.875
94.8125
84.125
74.75
66.6875
60.25
56.25
54.4375
54.0625
54.5
55.25
55.75
55.875
55.6875
55.125
54.4375
53.5
52.4375
51.3125
50.125
48.9375
47.8125
46.75
45.8125
45.0
44.25
43.5625
42.9375
42.3125
41.6875
41.0625
40.625
40.1875
39.8125
39.4375
39.125
38.75
38.4375
38.0625
37.75
37.5
37.1875
36.875
36.625
36.3125
36.0
35.75
35.5
35.1875
34.9375
34.6875
34.375
34.125
33.875
33.6875
33.5625
33.75
37.3125
51.8125
79.125
105.625
120.6875
128.5
131.25
127.125
118.125
106.8125
94.8125
83.5625
73.9375
65.8125
59.375
55.0625
53.125
52.6875
53.1875
54.0625
55.0
55.625
55.875
55.625
54.9375
54.0625
53.125
52.0625
50.875
49.6875
48.5625
47.625
46.5625
45.6875
44.9375
44.25
43.5625
42.9375
42.3125
41.875
41.375
40.875
40.4375
40.0625
39.625
39.3125
39.0625
38.875
38.625
38.3125
37.9375
37.5625
37.25
36.9375
36.5625
36.25
36.0
35.6875
35.4375
35.1875
34.9375
34.75
34.5
34.25
34.0
34.25
37.8125
51.75
78.9375
107.625
125.0
133.875
138.125
136.125
130.25
122.9375
113.8125
103.5625
93.125
83.0625
73.8125
65.875
59.875
56.3125
54.75
54.625
55.0625
55.6875
56.0625
56.125
55.875
55.25
54.5
53.625
52.5625
51.4375
50.25
49.125
48.125
47.125
46.1875
45.3125
44.4375
43.6875
43.0
42.4375
42.0
41.5
41.0
40.5
40.0625
39.625
39.375
39.0625
38.6875
38.375
38.125
37.8125
37.4375
37.125
36.8125
36.5625
36.3125
36.0
35.6875
35.4375
35.125
34.8125
34.5625
34.3125
34.125
33.9375
33.75
33.4375
33.3125
34.4375
42.1875
63.5625
93.8125
117.1875
128.5
134.1875
134.4375
128.875
120.375
110.375
99.1875
87.875
77.75
69.0625
61.8125
56.6875
54.125
53.25
53.375
54.0625
54.75
55.125
55.125
54.75
54.1875
53.375
52.3125
51.1875
50.0625
48.875
47.75
46.75
45.875
45.0625
44.3125
43.5625
42.875
42.125
41.5625
41.0625
40.5625
40.125
39.6875
39.3125
38.9375
38.5625
38.1875
37.875
37.625
37.3125
37.0
36.6875
36.4375
36.125
35.75
35.5
35.1875
34.875
34.625
34.375
34.0625
33.8125
33.6875
33.75
36.125
47.5
71.6875
98.625
116.25
125.1875
128.9375
126.75
119.375
109.125
98.125
87.625
77.8125
69.125
61.9375
56.75
53.875
52.8125
52.9375
53.5625
54.4375
55.0625
55.3125
55.125
54.625
53.8125
52.8125
51.75
50.6875
49.5
48.4375
47.4375
46.4375
45.625
44.875
44.1875
43.5
42.8125
42.25
41.6875
41.1875
40.75
40.3125
39.9375
39.5625
39.1875
38.9375
38.6875
38.375
38.0
37.6875
37.375
37.0625
36.75
36.4375
36.25
37.0
43.0625
61.0625
88.4375
112.625
126.6875
133.5
134.9375
131.0625
124.125
115.875
106.25
96.0625
86.375
77.3125
69.0
62.375
58.125
55.8125
54.9375
55.0625
55.625
56.0
56.0625
55.875
55.375
54.625
53.75
52.75
51.625
50.5625
49.4375
48.4375
47.4375
46.5625
45.75
44.9375
44.1875
43.5
42.8125
42.1875
41.625
41.1875
40.8125
40.375
40.0
39.5625
39.1875
38.75
38.5
38.25
37.9375
37.625
37.25
37.0
36.6875
36.375
36.0625
35.75
35.5625
35.375
35.0625
34.75
34.5
34.25
34.0625
33.875
34.4375
39.75
58.125
89.0625
116.0625
130.1875
137.0625
138.625
133.5
123.5625
112.1875
100.6875
89.5625
79.4375
70.75
63.5625
58.1875
55.1875
54.125
54.125
54.6875
55.4375
55.8125
55.8125
55.5625
54.9375
54.0625
53.0
51.875
50.6875
49.5625
48.5
47.4375
46.375
45.375
44.5625
43.8125
43.1875
42.5
41.875
41.375
40.8125
40.3125
39.9375
39.5
39.1875
38.8125
38.4375
38.125
37.8125
37.5
37.1875
36.875
36.5625
36.25
35.9375
35.625
35.3125
35.0
34.75
34.5
34.25
34.0
33.75
33.5
33.3125
33.0625
32.875
32.75
32.5625
32.25
32.0
31.9375
31.9375
32.0
34.375
45.875
71.4375
100.8125
118.875
126.5
129.5625
126.5
117.0625
105.375
94.0
83.1875
73.4375
65.3125
58.8125
54.25
51.9375
51.4375
51.75
52.625
53.6875
54.375
54.625
54.4375
53.9375
53.125
52.1875
51.125
50.1875
49.125
48.0625
47.0625
46.0625
45.1875
44.375
43.625
42.875
42.375
41.875
41.375
40.875
40.375
39.9375
39.5625
39.1875
38.875
38.5625
38.3125
38.0
37.625
37.375
37.0
36.6875
36.375
36.1875
35.9375
35.5625
35.25
35.0
34.75
34.5
34.3125
34.125
34.125
35.0
41.25
59.625
88.0625
112.8125
126.0625
133.0625
135.3125
131.6875
124.75
116.3125
107.0
97.375
87.8125
78.75
70.4375
63.5
58.4375
55.75
54.8125
54.9375
55.4375
55.875
56.0
55.875
55.4375
54.625
53.625
52.625
51.5625
50.4375
49.3125
48.3125
47.375
46.4375
45.5625
44.8125
44.0625
43.375
42.6875
42.1875
41.625
41.125
40.6875
40.25
39.875
39.5
39.125
38.8125
38.4375
38.125
37.75
37.3125
37.0625
36.75
36.375
36.0625
35.75
35.375
35.0625
34.625
34.3125
34.125
33.9375
33.6875
33.375
33.125
32.9375
32.75
32.5625
32.4375
32.3125
32.5625
36.0625
50.5
78.6875
107.9375
124.75
132.3125
134.75
130.8125
122.4375
112.9375
102.5625
91.875
82.0625
73.5625
66.0625
59.8125
55.8125
53.875
53.375
53.5625
54.0625
54.5625
54.75
54.5625
54.0625
53.375
52.5
51.5625
50.5
49.375
48.25
47.25
46.3125
45.5
44.8125
44.0625
43.375
42.75
42.0625
41.4375
40.9375
40.5
40.0
39.5625
39.125
38.875
38.5625
38.3125
37.9375
37.625
37.375
37.0625
36.8125
36.5625
36.3125
36.125
35.9375
35.625
35.4375
35.3125
35.1875
35.0625
34.875
34.6875
34.5625
34.4375
34.375
34.25
34.0625
34.0
33.875
33.6875
33.5
33.3125
33.125
33.0625
33.4375
37.75
52.75
79.5625
106.875
122.75
129.0625
130.375
125.75
117.1875
107.375
96.5
85.8125
76.1875
68.0
61.125
55.8125
52.5
51.375
51.5
52.1875
53.1875
53.9375
54.25
54.0625
53.625
53.0
52.0625
50.9375
49.9375
48.9375
48.0
47.0
46.0
45.0625
44.3125
43.5625
42.875
42.25
41.6875
41.1875
40.6875
40.1875
39.6875
39.3125
39.0
38.625
38.3125
38.0625
37.8125
37.4375
37.0625
36.6875
36.4375
36.125
35.8125
35.5
35.25
35.0
34.8125
34.5625
34.25
34.0
33.8125
33.5625
33.3125
33.0625
32.875
32.6875
32.5
32.3125
32.0625
31.875
31.6875
31.5
31.375
31.1875
31.0
30.8125
30.625
30.5
30.375
30.25
30.1875
30.0625
29.9375
30.375
34.6875
49.75
76.75
104.4375
120.6875
127.875
130.625
127.5
120.125
111.0
101.0625
90.8125
81.125
72.5
65.1875
59.125
54.9375
52.9375
52.3125
52.5
53.0625
53.5
53.625
53.375
52.8125
52.1875
51.3125
50.4375
49.5
48.4375
47.375
46.375
45.4375
44.625
43.875
43.0625
42.3125
41.625
40.9375
40.4375
39.9375
39.375
38.9375
38.625
38.3125
37.9375
37.5625
37.1875
36.875
36.625
36.3125
36.0625
35.8125
35.5
35.1875
34.875
34.5
34.1875
33.9375
33.75
33.5
33.25
33.0
32.6875
32.4375
32.25
32.0625
31.875
31.6875
31.5625
31.25
31.0625
30.875
30.6875
30.5
30.375
30.125
29.9375
29.9375
29.875
29.75
30.3125
35.5625
51.8125
77.5625
100.5
113.6875
120.8125
122.875
118.75
110.8125
101.3125
91.0
81.0
72.1875
64.8125
58.625
53.9375
51.375
50.5625
50.6875
51.375
52.25
52.8125
53.0
52.75
52.25
51.5625
50.6875
49.75
48.75
47.75
46.8125
45.875
44.9375
44.125
43.375
42.6875
42.0
41.375
40.875
40.375
39.875
39.375
39.0
38.6875
38.3125
37.9375
37.6875
37.4375
37.0625
36.6875
36.375
36.125
35.8125
35.5625
35.25
34.9375
34.625
34.4375
34.125
33.875
33.6875
33.375
33.125
32.9375
32.6875
32.5
32.3125
32.125
31.9375
31.75
31.5625
31.375
31.1875
31.3125
34.0625
45.125
67.5
94.0625
113.75
124.4375
129.5625
128.8125
123.5
116.75
109.0625
100.1875
90.75
81.875
73.6875
66.125
59.9375
55.875
53.75
52.9375
52.9375
53.3125
53.6875
53.8125
53.75
53.3125
52.5625
51.625
50.6875
49.6875
48.6875
47.6875
46.75
45.8125
44.9375
44.1875
43.375
42.625
41.9375
41.375
40.875
40.375
39.9375
39.5
39.0625
38.625
38.25
37.875
37.5
37.1875
36.8125
36.4375
36.0625
35.6875
35.375
35.125
34.75
34.375
34.0625
33.8125
33.5625
33.3125
33.0625
32.875
32.625
32.4375
32.1875
31.9375
31.75
31.5625
31.3125
31.0625
30.9375
30.75
30.625
30.4375
30.25
30.125
30.0
29.875
29.75
31.125
38.9375
59.125
86.9375
108.9375
119.875
125.0625
125.5625
120.25
111.25
101.1875
91.125
81.5625
72.75
65.125
58.75
54.0625
51.5
50.6875
50.75
51.3125
52.0
52.4375
52.4375
52.1875
51.6875
50.9375
50.0
49.0625
48.1875
47.1875
46.125
45.125
44.25
43.5
42.875
42.25
41.625
41.0
40.5
40.0
39.625
39.25
39.0
38.75
38.625
38.5625
38.5
38.3125
38.125
37.8125
37.6875
37.5
37.375
37.1875
37.0
36.75
36.5625
36.3125
36.0
35.6875
35.4375
35.1875
34.9375
34.875
37.0625
46.625
66.8125
91.5625
110.5
120.875
126.1875
126.3125
121.125
113.0
104.0
94.75
85.5
76.6875
68.9375
62.25
57.25
54.375
53.1875
53.0
53.5
54.125
54.4375
54.375
54.125
53.5
52.625
51.625
50.5625
49.5
48.5
47.5625
46.625
45.625
44.875
44.0625
43.3125
42.625
42.0625
41.5625
41.0625
40.5625
40.0625
39.625
39.25
38.875
38.5
38.1875
37.9375
37.6875
37.3125
37.0
36.6875
36.375
36.0625
35.75
35.5625
35.3125
35.0
34.75
34.4375
34.1875
33.875
33.75
33.625
33.625
35.6875
45.875
69.125
97.6875
117.5
127.1875
132.0625
131.625
126.4375
118.5625
109.75
100.3125
91.125
82.5625
74.375
66.8125
60.8125
56.9375
55.0
54.3125
54.5
54.875
55.0625
55.0625
54.75
54.125
53.375
52.4375
51.4375
50.3125
49.25
48.125
47.125
46.125
45.25
44.5
43.75
43.0625
42.4375
41.875
41.3125
40.6875
40.1875
39.8125
39.5
39.125
38.6875
38.25
38.0
37.75
37.375
37.0625
36.75
36.5
36.1875
35.875
35.5
35.25
35.0
34.75
34.5
34.25
34.0
33.75
33.5625
33.3125
33.0625
32.875
32.6875
32.4375
32.1875
32.0625
32.0
31.875
32.4375
37.9375
55.75
84.25
108.6875
121.4375
127.75
128.875
122.6875
112.5
102.0625
91.6875
81.6875
72.875
65.5
59.375
54.875
52.625
52.3125
52.6875
53.5
54.4375
55.0625
55.1875
54.875
54.3125
53.5
52.625
51.625
50.5625
49.5
48.5
47.5
46.875
47.0
49.125
55.125
64.875
75.8125
84.0625
87.9375
88.1875
85.6875
81.125
75.0
68.3125
61.625
55.5
50.8125
47.875
46.25
45.4375
45.4375
45.9375
46.4375
46.8125
46.9375
46.875
46.5625
46.1875
45.625
45.0625
44.4375
43.8125
43.1875
42.5625
41.9375
41.375
40.8125
40.3125
39.875
39.3125
38.8125
38.375
37.9375
37.6875
37.4375
37.125
36.875
36.625
36.3125
36.0
35.75
35.5
35.25
35.0625
34.9375
34.75
34.4375
34.1875
33.875
33.75
33.5625
33.3125
33.125
33.0
32.8125
32.5625
32.3125
32.25
32.0625
31.875
31.75
31.6875
31.5625
31.5
32.875
43.1875
72.625
111.25
134.0625
141.1875
143.1875
139.375
130.0625
119.125
107.1875
94.5625
83.0625
73.6875
66.125
60.125
56.125
54.4375
54.125
54.5625
55.3125
55.875
55.875
55.5
54.8125
54.0
53.0
52.0
51.0
49.875
48.75
47.6875
46.6875
45.75
45.0
44.1875
43.4375
42.6875
42.0625
41.5
40.9375
40.5625
40.1875
39.8125
39.375
38.9375
38.625
38.3125
37.9375
37.625
37.375
37.125
36.75
36.4375
36.1875
35.875
35.5625
35.3125
35.0625
34.6875
34.3125
34.0625
33.8125
33.5625
33.4375
33.4375
35.625
47.125
73.25
102.375
119.875
128.375
132.4375
129.6875
121.625
111.3125
100.125
89.25
79.6875
71.3125
64.125
58.625
55.25
54.0
53.8125
54.25
54.875
55.1875
55.25
55.0
54.5625
53.875
53.0
52.0625
51.125
50.1875
49.25
48.3125
47.5
46.75
46.1875
45.5625
44.9375
44.3125
43.75
43.1875
42.6875
42.1875
41.6875
41.1875
40.75
40.375
40.0
39.625
39.25
38.9375
38.625
38.3125
37.9375
37.625
37.3125
37.0625
36.8125
36.5625
36.25
35.875
35.625
35.375
35.0625
34.8125
34.625
34.4375
34.375
35.5
43.5
65.6875
97.25
121.1875
132.25
137.6875
138.5
133.3125
125.0
115.5
105.1875
94.4375
84.125
75.1875
67.75
61.9375
58.4375
56.875
56.5625
56.875
57.3125
57.4375
57.25
56.75
56.0625
55.1875
54.125
53.0625
51.9375
50.75
49.6875
48.75
47.75
46.75
45.875
45.125
44.375
43.75
43.25
42.8125
42.25
41.6875
41.25
40.875
40.5
40.0625
39.75
39.5
39.1875
38.75
38.4375
38.0625
37.8125
37.5625
37.1875
36.875
36.5625
36.375
36.125
35.8125
35.5
35.25
35.0625
34.75
34.5625
34.375
34.0625
33.8125
33.625
33.4375
33.3125
33.125
33.0
32.8125
32.625
32.9375
36.9375
52.4375
81.375
110.1875
126.5
134.375
137.25
133.3125
124.8125
114.875
103.9375
93.0
82.9375
73.9375
66.3125
60.3125
56.5
54.9375
54.8125
55.3125
56.0
56.375
56.4375
56.0625
55.375
54.5
53.5625
52.5
51.4375
50.125
48.9375
47.875
46.875
46.0
45.125
44.375
43.6875
43.0
42.3125
41.75
41.3125
40.875
40.4375
40.0
39.5625
39.25
38.9375
38.625
38.3125
38.0
37.6875
37.3125
36.9375
36.625
36.3125
35.9375
35.5625
35.3125
35.0625
34.75
34.5
34.25
34.0
33.9375
35.375
43.8125
64.875
91.8125
111.5
121.9375
126.9375
126.25
120.1875
110.8125
100.125
89.375
79.625
71.25
63.9375
58.25
54.875
53.625
53.4375
53.9375
54.8125
55.5625
55.8125
55.75
55.25
54.5
53.5625
52.4375
51.3125
50.25
49.1875
48.125
47.125
46.25
45.4375
44.6875
44.0
43.3125
42.6875
42.1875
41.6875
41.25
40.75
40.5
40.125
39.75
39.375
39.0
38.6875
38.375
38.0
37.6875
37.375
37.125
36.8125
36.4375
36.125
35.875
35.625
35.375
35.125
34.875
34.6875
34.5
34.3125
35.3125
42.25
62.0625
91.5625
116.4375
129.875
136.5
137.625
133.5625
126.625
118.1875
108.4375
98.25
88.3125
79.0
70.5625
63.5625
58.5
55.9375
55.0625
55.3125
55.875
56.3125
56.5625
56.4375
55.9375
55.125
54.1875
53.125
52.0
50.875
49.75
48.6875
47.75
46.8125
45.875
45.0
44.1875
43.4375
42.75
42.1875
41.75
41.3125
40.8125
40.375
40.0
39.625
39.375
39.0
38.625
38.3125
38.0
37.6875
37.3125
36.9375
36.75
36.4375
36.1875
35.9375
35.6875
35.4375
35.125
34.8125
34.5625
34.25
34.0
33.75
33.625
33.5
33.25
33.0
32.75
32.5
32.3125
32.0625
31.875
31.5625
31.4375
32.625
41.0
63.5
94.8125
118.3125
128.8125
133.4375
132.375
125.5
116.4375
106.4375
95.5625
85.125
75.875
67.875
61.0625
56.125
53.4375
52.5625
52.625
53.25
53.8125
54.125
54.0
53.5625
52.875
52.0625
51.125
50.1875
49.125
48.0625
47.0
46.0
45.1875
44.375
43.625
42.875
42.1875
41.5625
40.9375
40.4375
39.9375
39.5
39.125
38.8125
38.5
38.125
37.875
37.625
37.375
37.125
36.875
36.625
36.375
36.1875
36.0
35.875
35.75
35.5625
35.5
35.375
35.25
35.125
35.0
34.8125
34.6875
34.5
34.3125
34.1875
34.0
33.8125
33.625
33.4375
33.1875
32.875
32.625
32.4375
32.25
32.1875
32.75
37.875
53.9375
80.625
106.5625
121.5
127.875
129.3125
125.1875
117.375
107.4375
96.0625
85.4375
76.125
67.9375
61.0625
55.9375
53.0625
52.0
52.0
52.4375
53.1875
53.8125
53.9375
53.6875
53.0625
52.25
51.3125
50.375
49.375
48.375
47.4375
46.4375
45.5
44.5625
43.8125
43.1875
42.5625
41.875
41.3125
40.8125
40.375
39.875
39.375
39.0625
38.8125
38.5
38.125
37.75
37.3125
37.0
36.75
36.4375
36.125
35.875
35.625
35.3125
35.0625
34.8125
34.5
34.25
34.0
33.75
33.5625
33.375
33.125
32.8125
32.5625
32.375
32.1875
32.0625
32.75
37.875
53.875
80.1875
105.625
120.8125
127.6875
129.5
126.625
120.4375
112.625
103.8125
94.25
84.75
75.75
67.5625
60.6875
55.875
53.25
52.25
52.25
52.6875
53.125
53.25
53.1875
52.8125
52.1875
51.4375
50.5
49.5
48.4375
47.4375
46.5
45.5
44.5625
43.6875
42.9375
42.1875
41.625
41.0
40.375
39.75
39.3125
38.8125
38.375
38.0
37.625
37.3125
37.0
36.6875
36.3125
36.0
35.75
35.4375
35.0625
34.6875
34.4375
34.1875
33.9375
33.75
33.5
33.1875
32.9375
32.625
32.3125
32.125
32.0
31.75
31.5625
31.375
31.125
30.9375
30.8125
30.6875
30.5
30.375
30.25
30.125
30.125
30.1875
30.125
30.1875
30.3125
30.4375
30.5625
30.6875
30.875
31.0
31.0
30.9375
30.875
30.875
30.75
30.6875
31.25
36.25
52.0
77.9375
102.8125
116.8125
122.5625
122.9375
116.875
106.625
95.375
84.375
74.5625
66.3125
59.5625
54.1875
50.4375
48.625
48.375
48.875
49.625
50.5625
51.0625
51.25
50.9375
50.4375
49.8125
48.9375
48.0625
47.125
46.25
45.3125
44.5
43.6875
42.9375
42.1875
41.5
40.9375
40.4375
39.875
39.375
38.875
38.5
38.125
37.75
37.4375
37.0625
36.75
36.375
36.125
35.875
35.6875
35.375
35.0625
34.6875
34.4375
34.125
33.875
33.6875
33.5
33.25
32.9375
32.6875
32.5
32.3125
32.0625
31.8125
31.625
31.5
31.375
31.125
30.875
30.6875
30.5625
30.375
30.1875
30.125
30.0
29.875
29.625
29.4375
29.375
30.125
35.5
51.125
76.125
100.5625
115.1875
122.5
126.0625
124.75
119.9375
113.5
105.25
96.0625
87.25
78.6875
70.5
63.1875
57.4375
53.625
51.5625
50.6875
50.6875
51.125
51.5
51.5625
51.3125
50.8125
50.25
49.5
48.625
47.75
46.6875
45.6875
44.75
43.875
43.0625
42.3125
41.6875
41.0625
40.375
39.75
39.125
38.5625
38.0625
37.625
37.1875
36.8125
36.5
36.125
35.75
35.5
35.1875
34.875
34.5
34.125
33.75
33.5
33.1875
32.875
32.625
32.375
32.0625
31.75
31.5
31.25
31.0625
30.875
30.9375
33.375
44.0
65.5
89.375
105.5625
113.8125
117.9375
117.6875
112.5625
104.375
95.25
86.1875
77.3125
69.0
61.9375
56.0625
51.8125
49.625
49.125
49.375
50.125
51.0
51.5
51.5625
51.3125
50.8125
50.125
49.375
48.5
47.5625
46.625
45.6875
44.75
43.875
43.125
42.4375
41.75
41.0625
40.4375
39.875
39.4375
38.875
38.375
38.0625
37.75
37.375
37.0
36.75
36.5625
36.1875
35.8125
35.5
35.25
35.0
34.6875
34.375
34.0625
33.75
33.5625
33.375
33.5
36.375
48.0
70.9375
97.3125
115.4375
124.0625
128.1875
127.625
122.6875
116.0
108.3125
99.375
89.875
80.875
72.8125
65.625
59.5
55.375
53.375
52.625
52.625
52.875
53.0
53.0625
52.8125
52.3125
51.5625
50.6875
49.75
48.75
47.75
46.75
45.8125
44.9375
44.125
43.375
42.625
41.9375
41.3125
40.75
40.25
39.6875
39.125
38.6875
38.25
37.9375
37.625
37.3125
36.9375
36.625
36.3125
35.875
35.5625
35.25
34.9375
34.625
34.375
34.0625
33.75
33.375
33.0
32.6875
32.4375
32.1875
31.9375
31.625
31.4375
31.25
31.0625
30.8125
30.625
30.5
30.3125
30.125
29.875
29.6875
29.5
29.3125
29.1875
29.0625
29.0
28.875
28.8125
30.25
39.0
61.875
92.875
114.25
122.6875
126.8125
125.5625
117.875
108.1875
98.1875
87.375
77.3125
68.9375
62.0
56.1875
52.0
49.875
49.4375
49.625
50.1875
50.8125
51.0625
51.0
50.75
50.1875
49.4375
48.5625
47.625
46.6875
45.625
44.5625
43.625
42.875
42.125
41.375
40.6875
40.0625
39.375
38.8125
38.3125
37.8125
37.4375
37.0625
36.8125
36.5
36.25
36.0
35.8125
35.625
35.4375
35.375
35.375
35.375
35.375
35.4375
35.4375
35.375
35.1875
35.0
34.875
34.75
34.625
34.375
34.125
33.875
33.75
33.375
33.0625
32.875
32.625
32.375
32.0625
31.75
31.5
31.3125
31.125
30.9375
30.75
30.625
30.5
30.3125
30.125
29.875
29.75
29.6875
29.5625
29.4375
29.3125
29.1875
29.0
28.9375
29.875
36.25
54.0625
81.5625
106.375
118.6875
123.6875
124.75
120.1875
112.0
102.8125
92.8125
82.75
74.0
66.6875
60.375
55.0625
51.75
50.375
50.0625
50.375
51.0625
51.625
51.875
51.6875
51.25
50.625
49.8125
48.9375
47.9375
46.9375
46.0
45.125
44.25
43.375
42.5625
41.875
41.1875
40.5625
40.0
39.5
39.0625
38.625
38.25
37.875
37.5
37.125
36.8125
36.5625
36.3125
36.0
35.6875
35.375
35.125
34.875
34.5625
34.1875
33.9375
33.75
33.5
33.125
32.75
32.375
32.125
31.875
31.625
31.375
31.1875
30.875
30.625
30.375
30.1875
30.0
29.75
29.5625
29.4375
29.3125
29.125
28.875
28.75
28.5625
28.4375
28.25
28.125
28.0
27.9375
28.5
33.375
48.5
73.4375
97.5625
111.6875
117.8125
119.9375
117.375
110.4375
102.0625
93.1875
83.9375
75.25
67.75
61.25
55.8125
52.0625
50.3125
49.6875
49.6875
50.125
50.5625
50.75
50.625
50.1875
49.5625
48.8125
48.0
47.0625
46.125
45.1875
44.3125
43.4375
42.6875
42.0
41.375
40.625
40.0
39.5
38.9375
38.4375
38.0
37.6875
37.3125
37.0
36.75
36.5
36.3125
36.125
36.0
35.8125
35.625
35.5
35.375
35.25
35.125
35.0
34.875
34.6875
34.5
34.3125
34.1875
34.0625
33.8125
33.625
33.4375
33.1875
32.9375
32.75
32.5
32.1875
31.9375
31.75
31.5
31.3125
31.125
31.0
30.875
30.6875
30.4375
30.25
30.0625
29.875
29.75
29.625
29.5625
29.4375
29.3125
29.5
32.375
43.4375
65.25
91.4375
110.25
118.125
121.25
120.625
114.375
105.6875
97.0625
87.875
78.625
70.6875
64.125
58.25
53.625
51.0625
50.125
50.0
50.4375
51.0
51.4375
51.5
51.25
50.6875
50.0
49.1875
48.375
47.5
46.625
45.625
44.6875
43.875
43.1875
42.5
41.8125
41.0625
40.5
39.875
39.375
38.9375
38.625
38.25
37.9375
37.5625
37.25
36.9375
36.5625
36.1875
35.9375
35.6875
35.375
35.0
34.6875
34.4375
34.3125
34.1875
34.625
38.625
51.4375
72.625
94.375
109.0625
116.6875
120.3125
119.0
113.5625
107.0625
99.8125
91.75
83.625
75.625
68.0
61.25
56.25
53.1875
51.8125
51.4375
51.625
51.9375
52.125
52.125
51.8125
51.25
50.4375
49.5625
48.5625
47.5625
46.5625
45.625
44.8125
43.9375
43.125
42.375
41.625
41.0625
40.5
39.875
39.375
38.9375
38.5
38.0625
37.6875
37.375
37.0625
36.8125
36.5625
36.25
35.875
35.5625
35.3125
35.0
34.6875
34.4375
34.125
33.875
33.625
33.4375
33.125
32.875
32.625
32.3125
32.125
31.9375
31.8125
31.5625
31.4375
31.3125
31.0625
30.875
30.75
30.625
30.5
30.4375
30.3125
30.6875
34.6875
49.4375
75.6875
101.125
115.125
121.0
122.875
118.4375
108.9375
98.125
87.625
78.0
69.5625
62.625
57.0
52.6875
50.375
50.0
50.625
51.4375
52.3125
52.875
53.0625
52.75
52.25
51.5
50.6875
49.75
48.8125
47.8125
46.875
45.9375
45.0
44.25
43.5625
42.875
42.1875
41.5625
41.0
40.5
40.125
39.6875
39.375
39.0625
38.75
38.375
38.0
37.75
37.4375
37.125
36.875
36.625
36.3125
36.0
35.625
35.3125
35.0
34.75
34.5625
34.4375
34.3125
34.875
39.625
54.875
79.5625
103.4375
118.375
126.125
129.125
126.875
120.8125
114.0625
107.0625
99.0
90.1875
81.75
73.8125
66.5625
60.75
57.0625
55.25
54.625
54.75
55.0
55.125
55.0
54.5625
53.875
53.0625
52.25
51.3125
50.3125
49.1875
48.1875
47.3125
46.4375
45.625
44.875
44.125
43.4375
42.8125
42.125
41.5625
41.0625
40.625
40.1875
39.8125
39.5
39.125
38.8125
38.4375
38.0625
37.6875
37.375
37.125
36.8125
36.5
36.3125
36.0625
35.8125
35.6875
37.3125
46.5
68.75
96.625
116.875
127.5625
132.625
132.0625
127.0625
119.875
111.1875
101.1875
91.0625
81.8125
73.6875
66.375
60.625
57.1875
55.5625
55.125
55.375
55.75
55.875
55.6875
55.1875
54.5625
53.6875
52.8125
51.75
50.625
49.5625
48.5625
47.5625
46.625
45.8125
45.0625
44.25
43.5625
42.8125
42.3125
41.75
41.25
40.8125
40.4375
40.0
39.625
39.25
38.9375
38.6875
38.4375
38.125
37.75
37.5
37.1875
36.9375
36.75
36.375
36.0625
35.8125
35.5
35.1875
34.9375
34.6875
34.4375
34.1875
34.0
33.75
33.5625
33.375
33.25
33.0625
32.8125
32.875
35.8125
48.875
76.25
105.125
121.6875
129.3125
132.375
128.9375
119.8125
108.5
96.8125
86.0625
76.6875
68.75
62.25
57.3125
54.5
53.6875
53.875
54.375
55.0
55.5
55.5
55.3125
54.8125
54.125
53.25
52.375
51.5
50.5
49.5
48.625
47.8125
47.0
46.3125
45.6875
45.125
44.5
44.0
43.625
43.1875
42.6875
42.25
41.875
41.5625
41.1875
40.8125
40.5
40.1875
39.875
39.5
39.1875
38.8125
38.5625
38.25
37.9375
37.625
37.3125
37.0625
36.875
36.5625
36.1875
35.9375
35.75
35.5625
35.4375
35.5
37.375
47.0625
70.25
100.125
121.9375
132.6875
138.1875
138.3125
133.25
126.6875
119.0
109.5
99.125
89.0
79.6875
71.375
64.5
59.875
57.5625
56.875
57.0
57.5
57.8125
57.875
57.5625
56.9375
56.125
55.3125
54.25
53.1875
52.0625
51.0
49.9375
48.9375
48.0
47.25
46.4375
45.6875
44.9375
44.3125
43.8125
43.25
42.75
42.25
41.8125
41.375
40.9375
40.625
40.375
40.0625
39.6875
39.25
39.0
38.6875
38.4375
38.125
37.875
37.5
37.1875
37.0
36.625
36.375
36.0625
35.8125
35.625
35.4375
35.3125
35.0625
34.9375
36.5625
45.75
68.625
98.4375
120.25
131.8125
138.25
138.8125
133.6875
126.1875
117.1875
106.3125
95.0625
84.8125
75.6875
67.75
61.5
57.8125
56.1875
55.8125
56.125
56.625
57.0
57.0625
56.75
56.1875
55.4375
54.5625
53.5
52.375
51.3125
50.25
49.25
48.1875
47.1875
46.3125
45.5625
44.75
44.0625
43.4375
42.875
42.375
42.0
41.5625
41.125
40.625
40.25
39.875
39.625
39.3125
39.0
38.75
38.4375
38.125
37.8125
37.5
37.125
36.8125
36.5
36.1875
35.9375
35.6875
35.4375
35.125
34.9375
34.75
34.5625
34.3125
34.0625
33.8125
33.8125
33.6875
33.4375
33.4375
35.6875
46.75
71.3125
100.0625
119.0625
128.75
133.125
130.6875
122.8125
112.5625
101.6875
90.9375
81.1875
72.5
65.0
59.0
55.25
53.875
53.9375
54.5625
55.375
56.25
56.6875
56.6875
56.375
55.8125
54.9375
54.0
53.0625
51.9375
50.875
49.875
48.8125
47.875
47.0625
46.3125
45.625
44.875
44.125
43.625
43.125
42.625
42.125
41.75
41.3125
41.0
40.6875
40.375
40.0625
39.8125
39.5625
39.1875
38.8125
38.5625
38.1875
37.875
37.625
37.375
37.0625
36.6875
36.4375
36.1875
35.9375
35.625
35.375
35.1875
35.0625
34.9375
35.1875
38.4375
51.5625
77.5625
106.375
125.0625
134.1875
138.4375
137.0
131.25
123.9375
115.25
105.1875
95.125
85.875
77.3125
69.4375
63.1875
59.375
57.5625
56.9375
57.0625
57.375
57.5
57.4375
57.0625
56.375
55.5
54.625
53.75
52.6875
51.625
50.5
49.4375
48.5
47.6875
46.875
46.0625
45.375
44.6875
44.0
43.375
42.8125
42.3125
41.8125
41.4375
41.0625
40.6875
40.3125
39.9375
39.625
39.3125
38.9375
38.6875
38.4375
38.1875
37.8125
37.4375
37.1875
36.8125
36.4375
36.1875
35.9375
35.625
35.25
34.875
34.625
34.3125
34.125
33.875
33.6875
33.5
33.375
33.125
33.3125
36.5625
50.0
77.125
106.375
123.875
132.3125
136.4375
134.5625
128.0
119.3125
108.8125
97.5625
87.125
77.8125
69.5625
62.5
57.5
55.0
54.25
54.4375
55.0625
55.6875
56.0
56.0
55.75
55.125
54.3125
53.375
52.1875
51.0
49.8125
48.6875
47.625
46.625
45.75
45.0
44.25
43.5625
42.8125
42.1875
41.6875
41.25
40.75
40.4375
40.0625
39.6875
39.375
39.0625
38.75
38.4375
38.0
37.625
37.375
37.0625
36.75
36.5
36.3125
36.0625
35.875
35.6875
35.5625
35.5
35.4375
35.4375
35.4375
35.375
35.375
35.375
35.375
35.3125
35.25
35.1875
35.125
35.25
37.3125
47.0625
68.6875
95.5625
115.625
125.75
130.0
128.875
121.9375
111.875
100.6875
89.3125
79.125
70.625
63.4375
57.75
54.1875
52.75
52.6875
53.25
54.125
54.875
55.1875
55.1875
54.8125
54.1875
53.3125
52.3125
51.3125
50.25
49.25
48.25
47.25
46.3125
45.5
44.75
44.0625
43.375
42.875
42.3125
41.875
41.4375
41.0
40.5
40.125
39.75
39.4375
39.125
38.875
38.625
38.3125
38.0
37.6875
37.25
36.9375
36.6875
36.4375
36.1875
36.0
35.75
35.4375
35.1875
34.9375
34.6875
34.4375
34.1875
34.0625
33.9375
33.625
33.4375
33.3125
33.1875
33.5625
37.6875
52.5625
79.5
107.625
125.375
133.875
137.625
136.25
130.875
123.375
114.5625
105.0625
95.0625
85.3125
76.5625
68.8125
62.5
58.4375
56.5625
56.0
56.25
56.625
56.8125
56.6875
56.3125
55.625
54.75
53.75
52.6875
51.5
50.3125
49.1875
48.1875
47.25
46.25
45.375
44.625
43.875
43.125
42.5625
42.0625
41.5625
41.0625
40.625
40.1875
39.875
39.5
39.125
38.8125
38.4375
38.125
37.75
37.375
37.0625
36.8125
36.5
36.125
35.8125
35.5
35.125
34.875
34.625
34.3125
34.0
33.8125
33.5625
33.3125
33.125
32.9375
32.6875
32.5625
33.25
38.9375
56.625
84.5
108.8125
122.125
128.875
130.4375
126.125
118.4375
108.8125
98.4375
88.25
78.875
70.4375
63.25
57.6875
54.375
53.3125
53.375
54.0
54.875
55.4375
55.625
55.5
55.0
54.375
53.5
52.5625
51.5
50.4375
49.375
48.375
47.375
46.5625
45.6875
44.9375
44.1875
43.4375
42.75
42.25
41.8125
41.4375
41.0
40.5625
40.1875
39.875
39.5
39.1875
38.875
38.5625
38.25
37.9375
37.5625
37.25
36.9375
36.625
36.3125
36.0
35.6875
35.5
35.25
34.9375
34.625
34.375
34.1875
33.9375
33.75
33.5625
33.3125
33.0625
32.875
32.75
32.6875
33.0625
37.125
51.5625
78.25
106.375
123.75
132.1875
136.5
135.5
129.75
121.6875
112.4375
102.5625
92.5625
83.125
74.375
66.625
60.375
56.5625
54.75
54.3125
54.6875
55.1875
55.5625
55.625
55.375
54.8125
53.9375
53.0
52.0
50.875
49.75
48.625
47.625
46.6875
45.6875
44.8125
44.0625
43.375
42.75
42.1875
41.6875
41.1875
40.75
40.25
39.8125
39.4375
39.125
38.8125
38.4375
38.0
37.5625
37.1875
36.875
36.5
36.125
35.75
35.4375
35.125
34.75
34.4375
34.1875
33.9375
33.9375
35.625
44.3125
65.1875
92.25
113.0625
124.0625
129.5625
130.125
125.375
117.375
108.3125
98.5625
88.625
79.4375
71.1875
63.8125
57.9375
54.3125
52.6875
52.25
52.625
53.25
53.6875
53.8125
53.5625
53.125
52.375
51.4375
50.375
49.375
48.3125
47.3125
46.3125
45.3125
44.4375
43.6875
42.9375
42.1875
41.5625
40.9375
40.3125
39.75
39.1875
38.6875
38.3125
38.0
37.625
37.3125
37.0
36.6875
36.3125
36.0625
35.75
35.4375
35.1875
34.875
34.625
34.375
34.1875
33.9375
33.6875
33.5
33.375
33.1875
33.125
33.1875
33.1875
33.25
33.3125
33.3125
33.3125
33.25
33.1875
33.1875
33.25
33.1875
33.3125
35.6875
46.5
69.5625
96.8125
115.3125
123.625
126.4375
123.125
113.625
101.8125
90.25
79.5625
70.4375
63.0
57.0625
52.875
50.8125
50.375
50.75
51.5625
52.4375
53.125
53.3125
53.1875
52.625
51.875
50.875
49.8125
48.8125
47.8125
46.75
45.75
44.8125
43.9375
43.1875
42.5
41.9375
41.375
40.875
40.375
39.875
39.5
39.125
38.75
38.4375
38.125
37.8125
37.5625
37.25
36.9375
36.625
36.375
36.125
35.75
35.375
35.125
34.8125
34.5
34.25
34.0625
33.8125
33.5625
33.375
33.1875
32.9375
32.6875
32.5
32.25
32.0625
31.9375
31.875
31.6875
31.4375
31.3125
31.125
30.9375
30.6875
30.625
30.5
30.375
30.375
31.875
40.125
60.6875
89.1875
112.5625
124.9375
131.125
131.9375
127.0625
119.8125
111.5625
102.5
93.0
83.625
74.875
66.875
60.25
55.75
53.4375
52.5
52.625
53.125
53.625
53.6875
53.5
53.0
52.3125
51.4375
50.4375
49.4375
48.3125
47.25
46.25
45.3125
44.375
43.5625
42.8125
42.0625
41.375
40.6875
40.0
39.4375
39.0
38.625
38.1875
37.8125
37.375
37.0625
36.75
36.375
36.125
35.8125
35.5
35.1875
34.8125
34.5625
34.25
33.9375
33.5625
33.3125
33.0625
32.75
32.5
32.25
32.0
31.75
31.5
31.25
31.0
30.8125
30.5625
30.375
30.125
29.875
29.625
29.5
29.375
29.25
29.125
29.0625
28.9375
28.875
30.0
37.4375
57.3125
84.625
105.5
115.25
120.0625
120.5
114.8125
105.375
95.0625
85.25
76.125
68.125
61.1875
55.625
51.875
50.25
50.0
50.375
51.125
52.0
52.5
52.625
52.375
51.875
51.25
50.4375
49.5
48.5625
47.625
46.625
45.625
44.8125
44.0
43.1875
42.4375
41.8125
41.125
40.625
40.125
39.6875
39.25
38.8125
38.5
38.125
37.6875
37.4375
37.125
36.8125
36.5
36.3125
36.0625
35.6875
35.25
34.9375
34.6875
34.375
34.125
33.875
33.6875
33.375
33.125
32.875
32.625
32.4375
32.1875
31.9375
31.8125
31.6875
31.5625
31.8125
35.0
47.3125
70.8125
97.3125
115.25
124.3125
128.8125
128.1875
123.25
116.75
109.625
101.3125
92.125
83.0
74.4375
66.5625
60.125
55.75
53.375
52.375
52.375
52.875
53.25
53.375
53.25
52.75
52.0625
51.375
50.4375
49.375
48.3125
47.3125
46.25
45.3125
44.5
43.75
43.0
42.25
41.5625
40.875
40.3125
39.8125
39.375
39.0
38.5625
38.25
37.875
37.5625
37.25
36.875
36.5625
36.25
35.9375
35.625
35.3125
35.0
34.75
34.5
34.25
33.9375
33.6875
33.4375
33.1875
32.9375
32.625
32.4375
32.25
32.0625
31.875
31.6875
31.4375
31.125
30.8125
30.5625
30.375
30.1875
30.0
29.8125
29.625
29.375
29.125
28.9375
28.75
28.625
28.5625
28.4375
28.25
28.0625
27.9375
27.875
27.75
27.5625
27.375
27.1875
27.0625
26.9375
26.8125
26.75
26.6875
26.625
26.6875
28.75
38.5625
61.3125
90.5625
110.9375
119.5625
123.75
122.5
115.5625
106.875
97.875
88.1875
78.5625
70.125
62.875
56.625
51.75
48.875
47.875
47.9375
48.4375
49.125
49.625
49.8125
49.6875
49.3125
48.625
47.75
46.875
45.9375
44.9375
44.0625
43.0625
42.125
41.375
40.6875
40.0
39.3125
38.6875
38.125
37.6875
37.25
36.8125
36.5
36.1875
35.875
35.5625
35.3125
35.0625
34.8125
34.6875
34.5625
34.5
34.375
34.3125
34.375
34.375
34.375
34.375
34.3125
34.25
34.125
33.9375
33.8125
33.625
33.375
33.1875
32.9375
32.6875
32.4375
32.1875
32.0
31.8125
32.4375
37.125
51.125
73.5625
96.75
111.75
118.3125
120.9375
119.0
112.625
104.125
94.6875
85.0
76.25
68.5625
61.9375
56.3125
52.3125
50.25
49.5625
49.5625
50.0
50.5
50.8125
50.875
50.625
50.0625
49.375
48.5
47.5625
46.625
45.75
44.875
43.9375
43.125
42.3125
41.625
41.0
40.4375
39.9375
39.375
38.875
38.375
37.9375
37.5
37.1875
36.8125
36.5
36.3125
36.0
35.625
35.3125
35.0625
34.8125
34.5
34.1875
34.0
33.75
33.4375
33.25
32.9375
32.625
32.4375
32.25
32.0625
31.875
31.625
31.3125
31.125
31.0
30.8125
30.625
30.4375
30.3125
30.1875
29.9375
29.75
29.625
29.5
29.625
32.0
42.1875
64.0625
91.625
112.5
121.75
126.0
126.375
121.375
114.0
106.0
96.6875
86.9375
77.9375
69.9375
62.9375
57.0625
53.0625
51.0625
50.4375
50.5
51.0
51.4375
51.625
51.5
51.125
50.5
49.625
48.6875
47.6875
46.6875
45.75
44.8125
43.9375
43.0625
42.25
41.5
40.875
40.3125
39.75
39.1875
38.625
38.1875
37.75
37.3125
36.875
36.5
36.25
35.9375
35.5625
35.25
34.9375
34.6875
34.375
34.0625
33.6875
33.4375
33.125
32.875
32.625
32.375
32.0625
31.75
31.5
31.375
31.25
31.0625
30.8125
30.5625
30.375
30.1875
29.9375
29.75
29.625
29.375
29.1875
29.0625
28.875
29.0
31.3125
41.875
64.1875
90.125
107.4375
115.0
117.9375
116.375
109.625
100.25
90.6875
81.375
72.6875
65.125
58.8125
53.6875
50.375
49.0625
48.875
49.3125
50.1875
51.0
51.5
51.5625
51.3125
50.75
50.0625
49.25
48.375
47.4375
46.4375
45.4375
44.5625
43.75
42.9375
42.1875
41.5
40.9375
40.375
39.875
39.375
38.875
38.4375
38.0625
37.8125
37.5
37.125
36.8125
36.5625
36.3125
36.0
35.6875
35.375
35.0625
34.75
34.4375
34.1875
33.9375
33.6875
33.375
33.125
32.9375
32.6875
32.4375
32.1875
32.0
31.875
31.6875
31.4375
31.25
31.125
30.875
30.6875
30.5
30.375
30.25
30.0625
30.0
30.4375
34.0625
46.875
70.5625
96.8125
114.1875
122.375
126.5
125.9375
120.625
113.5625
105.75
97.125
88.25
79.625
71.8125
64.875
58.9375
54.75
52.5
51.5625
51.5
51.9375
52.3125
52.4375
52.25
51.875
51.25
50.5
49.5625
48.625
47.625
46.6875
45.8125
44.9375
44.125
43.375
42.625
41.875
41.1875
40.5625
40.0
39.625
39.1875
38.8125
38.375
37.9375
37.5625
37.1875
36.8125
36.5625
36.125
35.8125
35.5
35.125
34.75
34.375
34.0625
33.75
33.4375
33.1875
32.9375
32.625
32.3125
32.0625
31.875
31.6875
31.4375
31.25
31.0625
30.875
30.625
30.375
30.25
30.125
29.875
29.6875
29.5
29.375
29.1875
28.9375
28.8125
28.625
28.375
28.25
28.125
28.0
27.875
27.8125
27.625
27.5
27.375
27.3125
27.1875
27.125
27.0625
27.3125
30.5625
43.4375
68.1875
94.9375
110.875
117.8125
121.0625
118.625
110.6875
100.875
91.0
81.3125
72.5625
65.0
58.4375
52.9375
49.125
47.375
47.125
47.5
48.125
48.9375
49.4375
49.5625
49.3125
48.875
48.3125
47.5
46.75
45.9375
45.0625
44.0625
43.1875
42.4375
41.75
41.1875
40.5625
40.0
39.5625
39.125
38.8125
38.5625
38.375
38.25
38.125
38.0
37.875
37.8125
37.6875
37.5625
37.3125
37.125
36.9375
36.75
36.375
36.0625
35.6875
35.3125
34.9375
34.625
34.375
34.0
33.625
33.3125
33.0625
32.875
32.75
32.9375
35.5625
45.875
66.1875
90.625
109.25
118.5625
123.0625
123.6875
119.4375
112.5625
104.875
96.3125
87.625
79.625
72.25
65.375
59.4375
55.25
52.875
51.75
51.5
51.75
52.0625
52.1875
52.125
51.8125
51.1875
50.4375
49.5625
48.75
47.8125
46.875
46.0
45.125
44.25
43.5
42.75
42.0
41.375
40.875
40.375
39.875
39.375
38.875
38.5
38.0625
37.75
37.4375
37.125
36.8125
36.5625
36.25
35.9375
35.625
35.3125
35.0625
34.8125
34.5625
34.3125
34.0
33.8125
33.6875
34.0
37.5625
50.8125
74.75
99.8125
115.5
123.0
127.125
126.9375
122.1875
114.8125
106.3125
97.3125
88.0
79.125
71.25
64.25
58.5625
54.8125
52.9375
52.125
52.0625
52.375
52.5625
52.5
52.3125
51.9375
51.3125
50.5625
49.625
48.625
47.625
46.625
45.6875
44.875
44.125
43.375
42.625
41.875
41.1875
40.625
40.125
39.5625
38.9375
38.375
38.0
37.6875
37.3125
36.9375
36.625
36.3125
35.9375
35.625
35.3125
35.0625
34.75
34.4375
34.1875
33.9375
33.6875
33.4375
33.1875
33.375
36.8125
50.4375
75.9375
100.8125
115.125
121.9375
124.5
121.6875
114.8125
106.0625
95.9375
85.625
76.5
68.5
61.4375
55.9375
52.4375
50.9375
50.625
50.875
51.4375
51.9375
52.1875
52.0625
51.6875
51.25
50.625
49.9375
49.0625
48.1875
47.4375
46.6875
46.0625
45.4375
44.75
44.1875
43.6875
43.125
42.5625
42.0625
41.625
41.1875
40.8125
40.5
40.125
39.75
39.375
38.9375
38.5625
38.1875
37.8125
37.4375
37.125
36.8125
36.5
36.25
36.0
35.6875
35.3125
35.0625
34.8125
34.5
34.1875
33.9375
33.8125
33.75
33.5
33.1875
32.9375
32.75
32.625
32.375
32.125
32.6875
37.875
55.0
83.8125
111.4375
127.0
133.3125
134.8125
130.75
123.0625
114.5625
105.375
95.125
84.9375
76.0625
68.4375
62.0
57.25
54.75
53.8125
53.6875
54.0625
54.4375
54.5625
54.4375
54.0
53.375
52.625
51.6875
50.6875
49.6875
48.6875
47.6875
46.6875
45.75
44.9375
44.25
43.625
42.9375
42.1875
41.625
41.125
40.625
40.1875
39.75
39.4375
39.0
38.625
38.3125
38.0
37.6875
37.375
37.125
36.8125
36.4375
36.1875
35.9375
35.625
35.3125
35.0625
34.8125
34.5
34.25
33.9375
33.5625
33.25
33.0625
32.8125
32.5625
32.3125
32.0625
32.0
33.375
41.5
62.75
92.125
114.8125
125.625
130.5625
130.75
125.6875
118.125
109.1875
98.9375
88.5625
79.1875
70.75
63.375
57.5
53.875
52.25
51.75
52.0
52.5625
53.0
53.125
52.9375
52.5
51.875
51.0625
50.1875
49.125
48.0625
47.0
46.125
45.375
44.5625
43.75
43.0
42.1875
41.4375
40.8125
40.3125
39.9375
39.5
39.0625
38.625
38.25
37.875
37.5
37.25
37.0
36.75
36.8125
39.1875
49.5625
70.625
93.0
107.625
116.0
120.25
118.875
113.375
106.0625
97.75
88.75
79.875
71.4375
63.75
57.6875
54.0
52.1875
51.625
51.9375
52.75
53.375
53.75
53.875
53.6875
53.1875
52.5
51.625
50.6875
49.6875
48.5625
47.5
46.5
45.6875
44.9375
44.1875
43.375
42.6875
42.125
41.6875
41.125
40.625
40.1875
39.75
39.375
39.0
38.6875
38.4375
38.1875
37.9375
37.625
37.3125
36.9375
36.625
36.3125
36.0625
35.8125
35.5625
35.3125
35.0
34.6875
34.3125
34.0
33.8125
33.6875
33.5
33.3125
33.0625
32.875
32.625
32.5
32.3125
32.125
32.0625
31.9375
31.75
31.5
31.4375
31.3125
31.25
32.75
41.9375
66.6875
100.0625
122.6875
132.6875
137.625
136.0
129.6875
121.625
111.625
100.0625
88.625
78.5625
70.125
63.1875
57.75
54.5
53.3125
53.375
54.0
54.75
55.25
55.25
55.0
54.375
53.5
52.5625
51.5625
50.4375
49.3125
48.25
47.1875
46.25
45.375
44.625
43.8125
43.0625
42.4375
41.875
41.4375
40.9375
40.5
40.0
39.625
39.25
38.8125
38.4375
38.1875
37.875
37.5
37.0625
36.6875
36.3125
35.9375
35.625
35.3125
35.0
34.6875
34.3125
34.0
33.625
33.375
33.125
32.875
32.75
32.5625
32.25
32.0625
31.875
31.8125
33.4375
42.6875
65.0625
93.375
113.8125
123.875
128.75
128.375
122.6875
114.1875
104.125
93.1875
82.75
73.8125
66.0625
59.5625
54.875
52.375
51.4375
51.375
51.875
52.5
52.75
52.8125
52.5
52.0
51.125
50.1875
49.1875
48.125
47.0
46.0
45.0625
44.1875
43.375
42.625
41.875
41.125
40.5
40.0
39.4375
38.9375
38.5
38.0625
37.6875
37.3125
37.0
36.625
36.25
36.0
35.8125
35.5625
35.375
35.3125
35.1875
35.125
35.125
35.1875
35.25
35.375
35.5
35.625
35.625
35.5
35.3125
35.1875
35.0
34.8125
34.5625
34.3125
34.0625
33.8125
33.5625
33.4375
34.625
41.875
61.0
88.6875
112.3125
123.875
127.875
127.125
120.75
110.3125
99.0
88.125
78.25
69.6875
62.5625
56.875
52.9375
51.1875
50.875
51.3125
52.125
52.8125
53.125
53.0625
52.8125
52.25
51.375
50.4375
49.5
48.5625
47.5
46.5
45.5625
44.75
44.0
43.1875
42.4375
41.6875
41.125
40.625
40.1875
39.6875
39.25
38.875
38.5
38.125
37.75
37.4375
37.1875
37.0
36.6875
36.375
36.0625
35.75
35.4375
35.1875
34.875
34.625
34.4375
34.1875
33.875
33.625
33.375
33.125
32.9375
32.6875
32.5
32.3125
32.1875
31.9375
31.6875
31.5
31.3125
31.25
32.25
38.8125
57.375
85.5
110.25
123.5
129.875
131.875
128.125
121.0625
112.875
103.9375
94.375
84.75
75.8125
67.875
60.9375
55.9375
53.1875
52.125
52.0625
52.5625
53.125
53.5
53.5
53.0625
52.375
51.5625
50.625
49.5
48.4375
47.375
46.375
45.375
44.4375
43.5625
42.75
42.0625
41.4375
40.75
40.1875
39.625
39.0625
38.5625
38.1875
37.875
37.4375
37.0625
36.75
36.5
36.1875
35.875
35.5625
35.25
34.9375
34.625
34.375
34.125
33.8125
33.5625
33.3125
33.0625
32.8125
32.5625
32.375
32.125
31.9375
31.6875
31.5
31.3125
31.1875
31.5625
35.6875
50.4375
76.0625
100.25
114.4375
121.6875
124.0625
120.0625
111.75
101.75
90.9375
80.625
71.75
64.375
58.25
53.8125
51.5625
50.9375
51.0
51.5625
52.3125
52.875
53.0
52.75
52.25
51.5625
50.6875
49.75
48.75
47.75
46.8125
45.875
45.0
44.1875
43.4375
42.6875
42.0
41.4375
40.875
40.375
39.875
39.375
38.9375
38.625
38.25
37.875
37.6875
37.5
37.1875
36.8125
36.4375
36.1875
35.875
35.625
35.1875
34.875
34.6875
34.5625
34.3125
34.0
33.6875
33.4375
33.25
33.0
32.8125
32.625
32.5
32.3125
32.125
32.6875
37.75
54.125
81.375
107.9375
123.5625
131.125
133.625
130.625
124.6875
117.9375
109.875
100.5
90.875
81.75
73.3125
65.75
59.875
56.1875
54.3125
53.625
53.8125
54.1875
54.375
54.3125
54.0
53.4375
52.6875
51.875
50.9375
49.8125
48.6875
47.6875
46.75
46.0
45.125
44.3125
43.5625
42.8125
42.125
41.5
40.9375
40.4375
40.0
39.5625
39.0625
38.5625
38.1875
37.75
37.375
37.0625
36.75
36.375
35.9375
35.5625
35.1875
34.875
34.625
34.3125
34.0625
33.8125
33.5
33.25
32.9375
32.625
32.375
32.1875
32.0
31.8125
31.625
31.375
31.0625
30.9375
30.75
30.5625
30.375
30.4375
32.3125
42.375
66.125
95.8125
116.0625
124.75
129.125
128.4375
122.3125
113.5
103.4375
93.125
83.1875
74.125
66.25
59.5625
54.5625
51.9375
51.0625
51.0625
51.5625
52.125
52.4375
52.4375
52.125
51.5625
50.875
50.0
48.9375
47.8125
46.75
45.75
44.875
44.0
43.125
42.25
41.5
40.8125
40.1875
39.625
39.125
38.6875
38.3125
38.0625
37.8125
37.4375
37.125
36.875
36.625
36.625
36.5625
36.4375
36.4375
36.5625
36.6875
36.625
36.5
36.375
36.3125
36.125
36.0
35.75
35.625
36.125
40.75
54.9375
78.125
101.375
116.5625
123.8125
125.0625
121.625
114.875
105.9375
95.875
85.875
76.5625
68.375
61.3125
55.8125
52.5625
51.3125
51.1875
51.625
52.4375
53.0
53.25
53.0625
52.625
51.9375
51.0625
50.0625
49.0625
48.0
47.0
46.125
45.1875
44.3125
43.5
42.8125
42.1875
41.5625
41.0
40.5
40.0625
39.625
39.125
38.75
38.375
38.0625
37.75
37.4375
37.125
36.875
36.5625
36.25
35.9375
35.625
35.3125
35.0625
34.8125
34.6875
34.4375
34.0625
33.8125
33.625
33.375
33.125
32.9375
32.75
32.5
32.25
32.125
32.5625
36.5
51.125
78.375
106.875
123.625
131.375
135.1875
133.0625
126.5625
118.6875
109.4375
98.875
88.5
79.25
71.0625
64.0
58.4375
55.1875
53.625
53.375
53.875
54.375
54.625
54.625
54.25
53.625
52.8125
51.9375
50.875
49.75
48.5
47.375
46.3125
45.375
44.4375
43.625
42.9375
42.1875
41.5
40.9375
40.375
39.875
39.4375
38.9375
38.5
38.125
37.6875
37.375
37.0625
36.8125
36.4375
36.125
35.75
35.4375
35.125
34.8125
34.5
34.25
33.9375
33.625
33.375
33.0625
32.75
32.5
32.3125
32.0625
31.875
32.1875
36.1875
51.3125
78.0
103.375
117.6875
124.9375
127.5625
123.9375
116.25
107.0625
96.5
85.5625
75.8125
67.5
60.375
54.75
51.5
50.375
50.4375
50.9375
51.75
52.3125
52.4375
52.25
51.8125
51.1875
50.25
49.25
48.25
47.1875
46.1875
45.1875
44.375
43.625
42.875
42.375
41.875
41.375
41.0
40.75
40.5
40.3125
40.25
40.125
39.9375
39.6875
39.4375
39.25
39.0
38.6875
38.375
38.125
37.8125
37.3125
36.8125
36.5
36.1875
35.875
35.5
35.0625
34.8125
34.5
34.25
33.9375
33.75
33.5625
33.375
33.1875
33.1875
35.25
45.125
67.75
96.5625
117.8125
127.6875
131.8125
131.25
125.75
117.8125
108.25
97.8125
87.875
78.875
70.625
63.4375
57.9375
54.625
53.1875
52.9375
53.375
54.0625
54.5625
54.625
54.375
53.6875
52.9375
52.0625
51.125
50.0625
48.875
47.75
46.6875
45.875
45.0
44.125
43.375
42.625
42.0
41.4375
40.875
40.375
39.9375
39.5625
39.1875
38.8125
38.375
38.0625
37.75
37.4375
37.125
36.875
36.625
36.3125
36.0
35.625
35.3125
35.0
34.8125
34.625
34.375
34.0
33.8125
34.4375
39.8125
56.3125
83.0625
108.375
123.0625
129.5625
131.1875
127.375
119.9375
111.5
102.1875
92.3125
82.875
74.25
66.4375
60.125
56.0
53.875
53.0625
53.125
53.6875
54.0625
54.1875
54.0625
53.5625
52.75
51.875
50.875
49.75
48.6875
47.5625
46.5625
45.5625
44.75
44.0625
43.3125
42.5625
41.875
41.125
40.5625
40.0625
39.625
39.1875
38.6875
38.25
37.875
37.5625
37.3125
37.0
36.625
36.25
35.9375
35.6875
35.375
35.0
34.6875
34.375
34.0625
33.8125
33.5
33.25
33.0
32.6875
32.4375
32.25
32.0625
31.875
31.6875
31.5
31.25
31.0
30.8125
30.625
30.5
30.3125
30.1875
30.1875
30.0
29.8125
29.625
29.5
29.375
29.25
29.375
32.3125
45.4375
71.9375
98.875
113.125
118.9375
121.8125
118.375
108.375
96.5
85.375
75.4375
66.9375
60.125
54.8125
51.3125
50.0
50.125
50.875
51.875
52.875
53.375
53.5
53.25
52.625
51.8125
50.75
49.75
48.6875
47.625
46.625
45.625
44.6875
43.875
43.125
42.5
41.9375
41.4375
40.9375
40.4375
40.0
39.5625
39.1875
38.8125
38.375
38.0625
37.8125
37.5625
37.25
36.9375
36.5625
36.3125
36.0625
35.75
35.375
35.0
34.75
34.5625
34.25
34.0
33.8125
33.5625
33.3125
33.0625
32.875
32.75
32.5625
32.3125
32.0625
31.8125
31.625
31.5625
31.375
31.1875
31.0625
30.875
30.6875
30.4375
30.1875
30.1875
30.125
30.0
30.375
34.0625
47.4375
72.3125
100.125
118.25
126.1875
129.75
129.0625
124.375
117.6875
109.625
100.4375
90.6875
81.375
73.0
65.5625
59.375
55.4375
53.375
52.625
52.75
53.1875
53.5
53.5
53.25
52.625
51.9375
51.0625
50.0625
49.0625
48.0625
47.0
46.0
45.0
44.125
43.3125
42.625
41.875
41.1875
40.5
39.875
39.3125
38.875
38.4375
38.125
37.75
37.3125
36.875
36.5
36.125
35.875
35.5625
35.3125
35.0
34.625
34.3125
34.0
33.75
33.4375
33.125
32.75
32.4375
32.1875
31.9375
31.75
31.5
31.25
31.0
30.8125
30.5625
30.4375
30.25
30.125
29.875
29.5625
29.375
29.1875
29.0625
28.9375
28.8125
28.625
28.375
28.25
28.125
27.875
27.75
27.6875
27.5625
27.4375
27.375
27.1875
27.0
26.875
26.8125
26.8125
26.875
28.5625
37.4375
58.75
85.75
104.3125
111.75
115.25
114.375
107.5625
98.3125
89.0
79.4375
70.4375
63.0
56.875
51.9375
48.625
47.4375
47.625
48.375
49.375
50.3125
50.875
51.0625
50.875
50.375
49.75
48.875
48.0
47.125
46.25
45.3125
44.375
43.5625
42.8125
42.0625
41.375
40.6875
40.125
39.625
39.125
38.6875
38.25
37.9375
37.5625
37.25
36.875
36.625
36.375
36.0625
35.8125
35.4375
35.1875
34.875
34.625
34.3125
34.0
33.75
33.5
33.25
32.9375
32.625
32.375
32.25
32.0
31.8125
31.625
31.375
31.125
30.9375
30.8125
30.625
30.5
30.375
30.125
29.9375
29.75
29.6875
30.125
34.25
47.3125
69.9375
94.5625
111.8125
121.0
125.5
124.875
120.8125
115.875
109.3125
100.5625
91.375
83.0
75.1875
67.75
61.125
56.3125
53.375
51.875
51.3125
51.4375
51.6875
51.875
51.8125
51.4375
50.8125
50.125
49.3125
48.4375
47.5
46.5625
45.75
44.875
44.0
43.125
42.375
41.75
41.125
40.5
40.0
39.5
38.9375
38.375
37.875
37.375
37.0
36.625
36.25
35.8125
35.4375
35.0625
34.625
34.3125
34.0625
33.75
33.5
33.25
33.0
32.75
32.4375
32.1875
31.9375
31.6875
31.5
31.25
31.0
30.8125
30.5625
30.375
30.125
29.9375
29.8125
29.625
29.4375
29.1875
28.9375
28.8125
28.625
28.5
28.3125
28.1875
28.0
27.8125
27.625
27.5625
27.4375
27.25
27.0625
26.9375
26.8125
26.75
26.625
26.375
26.25
26.0625
25.9375
25.875
25.875
26.125
29.0625
41.0625
64.5
90.0625
106.0
113.0625
116.375
114.625
107.8125
98.625
88.875
79.3125
70.75
63.375
57.0625
51.875
48.4375
47.0
46.8125
47.125
47.875
48.75
49.25
49.4375
49.3125
49.0
48.5625
48.0
47.375
46.6875
45.9375
45.125
44.375
43.625
43.0625
42.4375
41.8125
41.1875
40.5625
39.9375
39.375
38.8125
38.375
38.0
37.5
37.0625
36.8125
36.625
36.3125
35.875
35.625
35.375
35.125
34.875
34.5625
34.25
34.0
33.6875
33.4375
33.0625
32.8125
32.6875
32.4375
32.125
31.875
31.6875
31.4375
31.125
30.9375
30.75
30.625
30.5
30.375
30.5
32.75
42.375
62.0
86.8125
106.75
116.25
120.5625
122.1875
119.375
113.3125
106.125
98.4375
90.375
82.0625
74.0625
66.875
60.5625
55.75
52.875
51.3125
50.75
50.8125
51.125
51.25
51.1875
50.875
50.375
49.6875
48.9375
48.0625
47.125
46.125
45.25
44.375
43.625
42.875
42.0625
41.375
40.75
40.1875
39.625
39.0625
38.5625
38.1875
37.8125
37.4375
37.0625
36.6875
36.3125
36.0
35.625
35.25
34.9375
34.5625
34.25
33.9375
33.5625
33.1875
32.8125
32.5625
32.3125
32.0625
31.75
31.4375
31.1875
30.9375
30.75
30.5625
30.375
30.1875
30.0
29.8125
29.5625
29.375
29.25
29.125
28.875
28.625
28.5
28.375
28.1875
28.0
27.75
27.5625
27.4375
27.375
27.25
27.0625
26.9375
26.75
26.5625
26.4375
26.25
26.25
26.25
27.5625
35.0625
54.5625
81.1875
101.6875
111.25
116.625
117.75
112.625
104.1875
95.0625
85.8125
76.9375
68.9375
61.9375
55.9375
51.25
48.3125
47.125
46.9375
47.3125
47.875
48.4375
48.6875
48.5
48.0625
47.5625
46.875
46.125
45.375
44.5625
43.625
42.6875
41.9375
41.375
40.875
40.25
39.75
39.3125
39.0625
38.875
38.625
38.375
38.3125
38.1875
38.0625
37.875
37.75
37.625
37.375
37.125
36.875
36.6875
36.3125
35.9375
35.5625
35.1875
34.875
34.5
34.0625
33.75
33.4375
33.1875
32.875
32.625
32.4375
32.25
32.0
31.8125
31.625
31.5
31.3125
31.125
30.875
30.6875
30.5
30.25
30.0625
29.875
29.75
29.625
29.4375
29.3125
29.125
29.25
31.5
40.9375
60.8125
86.0
105.75
115.6875
121.0625
123.0
120.0625
114.375
107.125
98.125
88.25
79.125
71.3125
64.25
58.1875
53.875
51.625
50.5
50.125
50.375
50.75
51.0
50.875
50.5625
50.125
49.4375
48.625
47.75
46.9375
46.0
45.125
44.375
43.625
42.75
42.0
41.3125
40.6875
40.0625
39.5625
39.0625
38.5625
38.0625
37.625
37.25
36.875
36.5625
36.3125
36.0
35.75
35.4375
35.125
34.75
34.4375
34.1875
34.0
33.8125
33.5
33.1875
33.0
32.8125
32.5
32.1875
31.9375
31.6875
31.4375
31.25
31.0
30.6875
30.375
30.125
29.9375
29.75
29.5625
29.3125
29.0625
28.8125
28.6875
28.5625
28.4375
28.1875
28.0625
27.9375
27.75
27.5
27.375
27.25
27.0
26.875
26.8125
26.6875
26.5
26.375
26.25
26.3125
28.1875
37.0
57.375
83.5625
102.5625
111.375
117.0
118.0625
113.0
105.375
96.8125
87.4375
78.375
70.25
63.125
56.9375
51.75
48.25
46.8125
46.5625
46.6875
47.25
47.9375
48.3125
48.3125
48.0625
47.5625
46.875
46.125
45.25
44.375
43.5
42.5625
41.6875
41.0
40.3125
39.625
39.0625
38.4375
37.8125
37.3125
36.875
36.5
36.1875
35.9375
35.625
35.375
35.1875
35.125
35.0625
35.0625
35.0625
35.1875
35.25
35.1875
35.1875
35.125
35.0625
34.9375
34.8125
34.5625
34.3125
34.125
33.8125
33.5625
33.3125
33.0625
32.6875
32.375
32.0625
31.875
31.625
31.3125
31.0625
30.9375
30.8125
30.625
30.5
30.3125
30.125
29.875
29.6875
29.5625
29.5
29.4375
29.8125
33.625
46.3125
68.1875
91.6875
108.0625
115.875
119.375
118.625
112.8125
104.375
95.0
85.6875
77.1875
69.6875
63.0
57.1875
52.6875
49.9375
48.75
48.5
48.75
49.3125
49.8125
49.875
49.625
49.25
48.625
47.9375
47.125
46.3125
45.4375
44.625
43.75
42.9375
42.1875
41.4375
40.875
40.3125
39.75
39.1875
38.625
38.125
37.6875
37.3125
37.0
36.6875
36.375
36.0625
35.75
35.4375
35.125
34.8125
34.5
34.3125
34.0625
33.75
33.5625
33.3125
33.0
32.8125
32.5625
32.25
32.0
31.8125
31.5625
31.1875
30.875
30.6875
30.5
30.375
30.0625
29.8125
29.5625
29.3125
29.0625
28.9375
28.8125
28.6875
28.5625
28.4375
28.25
28.375
30.8125
40.9375
61.9375
87.625
106.375
115.0625
119.5625
119.5625
114.375
107.0625
99.125
90.375
81.4375
73.3125
66.0625
59.5625
54.1875
50.6875
49.0625
48.5625
48.5625
49.0625
49.5625
49.6875
49.625
49.3125
48.8125
48.25
47.375
46.5
45.5625
44.6875
43.8125
43.0
42.1875
41.5
40.8125
40.125
39.5
39.0
38.5
38.0
37.5
37.0
36.625
36.3125
36.125
35.8125
35.5
35.25
35.0
34.75
34.4375
34.1875
34.0
33.75
33.5
33.375
33.25
33.125
33.0625
33.5625
37.5
50.1875
71.375
92.6875
106.875
114.1875
117.25
116.0
110.5
102.4375
93.125
83.6875
75.125
67.5625
60.9375
55.4375
51.75
49.875
49.0625
48.875
49.25
49.875
50.375
50.375
49.9375
49.4375
48.875
48.125
47.25
46.3125
45.5625
44.625
43.6875
42.8125
42.125
41.5625
41.0
40.375
39.8125
39.25
38.75
38.25
37.8125
37.375
37.0625
36.6875
36.4375
36.1875
35.8125
35.5
35.25
34.875
34.5625
34.3125
34.1875
34.0
33.6875
33.375
33.125
32.875
32.625
32.4375
32.125
31.875
31.75
31.5625
31.375
31.125
30.9375
30.8125
30.625
30.4375
30.3125
30.125
29.875
29.8125
29.625
29.4375
29.25
29.25
29.1875
29.0
29.5625
34.4375
50.5625
78.3125
105.5
120.4375
127.125
129.3125
125.6875
118.5
110.5625
101.4375
91.0625
81.3125
72.9375
65.625
59.3125
54.375
51.4375
50.3125
50.125
50.5625
51.125
51.5625
51.625
51.375
50.875
50.25
49.4375
48.5625
47.5625
46.5
45.5
44.5625
43.625
42.6875
41.9375
41.25
40.625
39.9375
39.3125
38.8125
38.375
38.0
37.5625
37.1875
36.8125
36.4375
36.125
35.8125
35.5
35.25
35.0
34.75
34.4375
34.125
33.75
33.5
33.25
33.0
32.75
32.5
32.25
32.0
31.8125
31.5625
31.375
31.125
31.0
30.875
30.8125
32.125
39.6875
59.0625
85.25
105.0
114.375
119.6875
120.75
116.0625
108.75
100.5625
91.1875
82.0
73.8125
66.5
59.875
54.4375
51.0625
49.5
49.0
49.125
49.75
50.375
50.6875
50.6875
50.375
49.9375
49.25
48.5
47.8125
46.9375
46.0625
45.3125
44.625
43.9375
43.3125
42.75
42.25
41.75
41.1875
40.625
40.125
39.625
39.25
38.875
38.5
38.0625
37.75
37.375
37.0
36.625
36.3125
36.0625
35.75
35.4375
35.1875
34.8125
34.5
34.25
33.9375
33.6875
33.5
33.25
33.0
32.75
32.5
32.3125
32.0625
31.8125
31.5625
31.5
31.3125
31.125
31.5625
35.5625
49.8125
75.0625
100.6875
116.0625
123.875
127.5
125.25
119.125
111.3125
102.0625
91.8125
82.0
73.5
66.125
59.5625
54.625
51.75
50.5625
50.375
50.875
51.625
52.125
52.1875
51.9375
51.375
50.625
49.75
48.875
47.9375
47.0
46.0
45.0625
44.1875
43.375
42.6875
42.0625
41.375
40.75
40.125
39.625
39.1875
38.75
38.375
38.0
37.6875
37.375
37.0625
36.75
36.375
36.0625
35.75
35.5
35.25
35.0
34.625
34.3125
34.0625
33.875
33.625
33.375
33.125
32.875
32.6875
32.4375
32.1875
31.9375
31.75
31.4375
31.25
31.0625
30.875
30.5625
30.3125
30.0625
29.875
29.6875
29.5
29.3125
29.1875
29.0
28.875
28.625
28.5
28.5
28.375
28.3125
29.8125
38.3125
59.75
88.875
110.3125
119.4375
123.8125
123.4375
117.375
108.625
99.0625
89.0
79.0
70.25
63.0
56.875
52.125
49.375
48.4375
48.4375
48.875
49.4375
49.8125
49.9375
49.8125
49.4375
48.75
48.0
47.25
46.375
45.375
44.4375
43.4375
42.6875
41.9375
41.25
40.5625
39.875
39.25
38.6875
38.125
37.6875
37.3125
36.9375
36.5
36.1875
35.875
35.625
35.3125
35.0625
34.875
34.625
34.3125
34.0625
33.875
33.625
33.4375
33.25
33.125
33.125
33.125
33.0
33.0
33.0625
33.125
33.0625
33.0
33.0
33.0
32.9375
32.8125
32.6875
32.5625
32.4375
32.25
31.9375
31.6875
31.5
31.3125
31.0625
30.8125
30.625
30.375
30.5625
33.5
44.8125
66.5
91.75
109.3125
117.1875
120.875
119.0
112.0
103.125
93.5
83.8125
74.875
67.1875
60.5625
55.0625
51.0625
48.875
48.1875
48.25
48.8125
49.4375
49.875
49.9375
49.6875
49.25
48.625
47.9375
47.0625
46.25
45.375
44.5
43.6875
42.875
42.125
41.4375
40.75
40.0625
39.5
39.0
38.5
38.0
37.5625
37.25
36.875
36.5
36.1875
35.875
35.625
35.3125
35.0
34.75
34.5625
34.25
34.0
33.6875
33.375
33.1875
33.0
32.75
32.5
32.25
32.0625
31.8125
31.625
31.375
31.1875
30.9375
30.75
30.5625
30.375
30.1875
29.9375
29.8125
29.75
29.5625
29.4375
29.25
29.125
28.9375
29.4375
33.9375
48.1875
72.3125
97.4375
113.125
120.375
123.5625
121.375
115.4375
107.9375
99.125
90.125
81.5
73.5
66.125
59.5625
54.375
51.0625
49.4375
48.875
48.9375
49.375
49.8125
49.875
49.75
49.375
48.8125
48.125
47.25
46.3125
45.4375
44.5625
43.6875
42.8125
42.0
41.3125
40.625
40.0
39.375
38.8125
38.25
37.8125
37.375
36.9375
36.5
36.1875
35.875
35.5
35.125
34.875
34.5625
34.125
33.8125
33.5625
33.3125
33.0625
32.75
32.4375
32.1875
32.0
31.75
31.5
31.1875
31.0
30.8125
30.6875
30.4375
30.25
30.1875
30.0
29.8125
29.5625
29.375
29.25
29.1875
29.1875
29.25
29.3125
29.375
29.375
29.4375
29.5
30.1875
34.5
47.875
70.5625
94.0
108.375
114.5
116.4375
113.125
105.25
95.5
85.5
76.1875
68.1875
61.375
55.5625
51.1875
48.5
47.4375
47.1875
47.5625
48.0625
48.625
48.9375
48.9375
48.625
48.125
47.4375
46.6875
45.875
45.0625
44.25
43.4375
42.625
41.8125
41.0625
40.4375
39.8125
39.25
38.75
38.25
37.75
37.25
36.8125
36.4375
36.125
35.75
35.5
35.25
34.9375
34.6875
34.375
34.125
33.875
33.625
33.3125
33.0625
32.8125
32.5625
32.3125
32.125
31.9375
31.625
31.375
31.1875
31.0625
30.875
30.5625
30.3125
30.1875
30.0625
29.8125
29.6875
29.625
29.5
29.3125
29.1875
30.5625
37.6875
55.625
81.0625
103.5625
116.1875
122.125
123.6875
120.375
114.375
107.75
99.875
90.9375
82.25
74.1875
66.625
59.9375
54.6875
51.3125
49.5
48.75
48.8125
49.0625
49.375
49.375
49.25
48.875
48.375
47.75
46.9375
46.0
45.0625
44.25
43.4375
42.625
41.875
41.125
40.4375
39.75
39.0
38.375
37.875
37.4375
36.9375
36.5
36.125
35.75
35.3125
35.0625
34.75
34.4375
34.125
33.8125
33.5
33.1875
32.9375
32.625
32.3125
32.0625
31.8125
31.625
31.3125
31.0
30.8125
30.5625
30.375
30.1875
30.0
29.875
29.6875
29.4375
29.3125
29.125
28.9375
28.75
28.625
28.4375
28.3125
28.1875
28.0
27.875
27.8125
27.9375
30.5
41.5
63.9375
89.3125
106.0
113.4375
116.4375
114.6875
107.625
98.5
89.4375
80.4375
71.8125
64.25
58.0
52.875
49.1875
47.5
47.0625
47.25
47.8125
48.5
48.9375
49.0625
48.8125
48.3125
47.75
46.9375
46.125
45.25
44.4375
43.625
42.875
42.125
41.4375
40.75
40.0625
39.5
38.9375
38.4375
38.0
37.5
37.1875
36.75
36.3125
35.9375
35.625
35.4375
35.1875
34.875
34.5625
34.1875
33.9375
33.6875
33.4375
33.0625
32.8125
32.5625
32.375
32.1875
31.9375
31.6875
31.5
31.1875
31.0
30.8125
30.625
30.4375
30.25
30.0625
29.9375
30.5
35.25
49.8125
73.8125
98.125
112.9375
120.1875
123.8125
122.25
116.875
110.5625
103.4375
95.0625
86.125
77.625
70.0625
63.25
57.4375
53.3125
50.9375
49.8125
49.5625
49.75
50.0
50.125
50.0625
49.75
49.3125
48.6875
47.9375
47.0
46.0625
45.1875
44.3125
43.5625
42.8125
42.0625
41.3125
40.5625
39.875
39.3125
38.875
38.4375
37.9375
37.4375
37.125
36.75
36.3125
35.875
35.625
35.375
35.0
34.625
34.3125
33.875
33.625
33.3125
32.9375
32.625
32.4375
32.25
32.0
31.6875
31.4375
31.1875
30.9375
30.8125
30.625
30.4375
30.3125
30.1875
31.1875
37.8125
56.1875
83.25
105.6875
115.9375
120.3125
121.125
116.75
109.0
100.5
91.625
82.5625
74.0
66.375
59.6875
54.3125
50.8125
49.0625
48.3125
48.25
48.75
49.125
49.1875
49.0625
48.75
48.375
47.6875
46.9375
46.0625
45.1875
44.3125
43.4375
42.6875
41.9375
41.25
40.5625
39.8125
39.0625
38.5
38.0
37.5
37.0625
36.625
36.3125
35.9375
35.5
35.25
35.0
34.8125
34.6875
34.5
34.375
34.1875
34.0625
34.0625
33.9375
33.8125
33.625
33.5625
33.5
33.375
33.1875
33.0625
32.875
32.6875
32.5625
32.4375
32.25
32.0625
31.8125
31.5625
31.3125
31.0625
30.875
30.625
30.4375
30.3125
30.1875
30.0625
30.9375
37.5
55.4375
82.1875
105.4375
116.125
120.125
120.5625
115.3125
105.875
95.4375
85.625
76.5625
68.4375
61.5
55.8125
51.5625
49.0625
48.125
47.9375
48.3125
48.875
49.375
49.5
49.25
48.8125
48.1875
47.5
46.8125
46.0
45.125
44.25
43.4375
42.5625
41.8125
41.0625
40.375
39.75
39.25
38.6875
38.1875
37.625
37.125
36.8125
36.5625
36.25
35.9375
35.5625
35.25
35.0
34.625
34.3125
34.0625
33.875
33.6875
33.375
33.0625
32.8125
32.625
32.3125
32.0625
31.8125
31.75
31.4375
31.125
30.9375
30.8125
30.625
30.375
30.1875
30.0625
29.9375
29.75
29.5
29.25
29.125
29.0625
28.875
28.6875
28.5
28.3125
28.0625
27.875
27.75
27.5625
27.4375
27.25
27.125
26.9375
26.875
27.8125
33.875
51.25
78.125
102.1875
114.0625
119.0
120.3125
116.25
108.75
100.1875
90.375
80.5625
71.875
64.3125
57.8125
52.625
49.0
47.3125
46.875
47.0
47.5
48.0625
48.3125
48.25
48.0
47.625
47.0625
46.3125
45.4375
44.5625
43.6875
42.8125
42.0
41.1875
40.4375
39.6875
39.0
38.375
37.8125
37.25
36.8125
36.3125
35.875
35.5
35.125
34.75
34.4375
34.1875
33.9375
33.625
33.25
33.0
32.8125
32.5
32.1875
31.9375
31.6875
31.4375
31.1875
31.0
30.8125
30.5625
30.375
30.1875
30.125
30.0
30.0
30.0625
30.0625
30.125
30.125
30.125
30.125
30.125
30.125
30.1875
30.25
30.1875
30.6875
34.875
47.6875
68.875
90.8125
104.375
110.0625
112.1875
109.125
100.75
91.0625
81.9375
73.125
65.1875
58.6875
53.375
49.25
46.875
46.0
45.9375
46.3125
47.0625
47.6875
47.9375
47.9375
47.5625
47.0
46.3125
45.5625
44.75
43.9375
43.125
42.3125
41.5
40.8125
40.125
39.4375
38.875
38.4375
37.9375
37.3125
36.8125
36.5
36.125
35.8125
35.5
35.1875
34.875
34.625
34.3125
34.0625
33.75
33.4375
33.1875
33.0
32.6875
32.375
32.1875
31.9375
31.6875
31.4375
31.3125
31.1875
31.0625
31.5
35.625
49.0625
71.5
94.9375
110.6875
118.25
121.375
119.75
114.0625
107.5
100.6875
93.0
84.75
76.6875
69.125
62.1875
56.5625
52.6875
50.5625
49.5
49.3125
49.5
49.625
49.6875
49.5625
49.1875
48.625
48.0
47.1875
46.3125
45.3125
44.375
43.5625
42.8125
42.0625
41.3125
40.5625
39.9375
39.3125
38.6875
38.1875
37.6875
37.125
36.6875
36.375
36.0
35.625
35.25
35.0
34.6875
34.4375
34.1875
33.875
33.5625
33.3125
33.0
32.8125
32.5
32.25
31.9375
31.625
31.3125
31.125
30.9375
30.6875
30.4375
30.25
30.0625
29.875
29.75
29.625
29.5625
30.4375
36.625
54.75
81.4375
103.1875
114.0
119.375
