0
107.3125
107.5
107.625
107.75
107.6875
107.4375
107.125
107.0
107.0
107.0
106.875
106.5625
106.5
106.5625
106.4375
106.25
106.25
106.3125
106.4375
106.625
106.6875
106.5625
106.25
106.0
105.6875
105.5625
105.625
105.6875
105.8125
105.8125
105.6875
105.3125
105.0625
104.875
104.875
105.0625
105.8125
106.25
105.9375
105.9375
105.9375
105.625
105.5625
105.5625
105.5625
105.6875
106.0
106.0625
106.0
106.1875
106.1875
106.125
106.1875
106.1875
105.9375
106.0625
106.1875
106.1875
106.5625
106.75
106.25
105.5
105.3125
105.5
105.875
106.125
106.1875
106.5625
106.8125
106.375
106.0
105.6875
105.25
105.0625
105.5
105.875
105.6875
105.3125
105.125
104.5625
103.75
103.9375
104.375
104.625
105.1875
106.1875
106.5
105.6875
105.1875
105.4375
105.875
106.125
106.3125
106.9375
107.25
106.625
106.1875
106.8125
106.9375
106.1875
106.0625
106.75
107.0625
106.25
105.375
105.3125
106.0625
106.4375
107.0625
107.8125
106.8125
104.625
103.0625
103.3125
105.4375
106.6875
106.5
107.0625
108.0625
107.875
106.8125
106.875
107.5
107.75
107.375
106.1875
104.5625
102.875
101.8125
102.375
103.6875
104.3125
104.3125
105.25
106.1875
106.75
107.25
107.625
107.6875
107.6875
107.0
104.375
101.375
98.1875
94.125
92.8125
94.3125
96.8125
100.375
105.5625
111.1875
113.8125
113.5
113.8125
115.8125
116.4375
114.5625
112.75
109.125
104.875
103.5625
102.6875
101.875
102.8125
104.5625
104.0625
102.5
103.3125
106.125
107.5
106.625
106.25
106.875
106.3125
104.9375
104.0625
103.125
102.375
102.625
104.625
106.3125
106.375
107.25
109.3125
110.6875
110.875
110.0
108.5625
106.1875
103.9375
102.8125
102.3125
102.0
102.8125
104.0
104.5625
105.3125
106.75
107.5
107.25
106.875
106.5625
106.0
105.25
105.1875
105.9375
106.6875
107.0
107.5
107.625
106.875
106.4375
106.5625
106.5625
106.125
105.75
105.4375
105.1875
105.125
105.75
106.5625
106.5
106.0
105.9375
106.3125
106.5
106.25
105.9375
105.875
105.75
105.4375
105.1875
105.25
105.625
106.0625
106.0625
106.0
106.3125
106.5625
106.75
106.8125
106.375
105.8125
105.5625
105.625
105.875
106.0625
106.0625
106.3125
107.0
107.8125
108.5625
109.125
108.8125
106.625
103.0
99.5625
98.0625
100.625
103.375
100.4375
101.875
107.375
107.625
108.6875
114.0
115.75
110.9375
106.875
106.6875
106.375
106.875
108.25
99.4375
92.0
94.5
104.4375
112.9375
103.6875
97.6875
105.5625
110.875
112.0
114.3125
115.125
111.5625
105.8125
102.875
102.75
101.625
100.625
102.625
103.9375
103.9375
104.375
107.5625
110.3125
108.5625
105.4375
105.5
107.125
108.0
108.1875
107.125
106.0
105.8125
105.3125
104.6875
105.3125
107.3125
107.8125
105.3125
104.25
105.5
107.3125
107.9375
108.125
108.4375
107.875
107.25
107.3125
107.625
108.125
107.875
107.0
106.5625
107.3125
108.0
107.875
107.75
108.3125
108.6875
107.8125
107.1875
107.4375
107.375
106.8125
106.75
106.625
106.125
106.125
106.25
106.8125
107.6875
106.9375
105.9375
106.1875
106.6875
106.625
106.1875
105.75
106.0
106.4375
106.6875
106.8125
106.75
106.9375
107.25
107.25
107.375
107.5625
107.5625
107.75
108.25
108.0
107.25
107.25
107.375
106.8125
106.3125
106.875
107.9375
108.8125
109.375
109.375
108.375
107.125
107.0
107.4375
107.5
107.625
107.8125
107.6875
107.8125
108.25
108.375
107.9375
107.0
105.625
104.5625
104.5
104.8125
105.1875
105.9375
106.75
107.4375
107.1875
106.0625
106.25
108.1875
108.625
107.0625
107.125
108.0625
107.3125
105.9375
105.875
106.875
106.8125
106.3125
106.75
106.3125
105.0
105.875
107.375
106.9375
105.75
104.6875
103.875
104.3125
106.3125
106.5625
105.1875
105.75
107.625
108.625
107.25
103.75
103.75
106.0
111.3125
116.0
106.5625
99.125
108.9375
116.6875
114.25
119.0
125.375
122.0
113.6875
113.375
122.1875
125.875
112.3125
101.5625
141.875
154.8125
117.8125
110.75
118.75
105.5625
93.125
89.375
89.3125
107.25
133.375
132.0
109.5625
93.6875
93.8125
103.125
120.75
124.625
103.1875
95.0
95.75
117.5
153.5625
131.75
58.6875
19.875
71.875
114.5
92.125
110.75
162.5
160.4375
144.0
136.625
104.25
84.3125
103.6875
111.3125
92.9375
92.0625
104.0
114.0625
128.625
134.625
126.9375
103.8125
97.125
119.8125
126.5
99.0625
81.125
108.0
152.875
159.0625
138.5625
109.8125
73.125
84.4375
130.0625
113.375
74.4375
102.0625
138.9375
133.5
129.25
125.75
99.125
69.9375
65.75
93.0625
114.0625
116.4375
105.1875
81.875
67.8125
71.5
84.0625
101.9375
124.75
123.9375
89.1875
84.3125
121.0
127.0
103.75
100.5625
108.125
95.25
79.0
84.8125
105.8125
123.3125
131.0
130.875
126.875
113.4375
116.125
148.0625
139.25
92.1875
83.375
107.9375
116.1875
114.375
114.1875
106.75
101.125
104.8125
108.4375
108.625
109.875
111.125
109.1875
106.625
107.0625
108.3125
107.8125
107.0625
107.5
107.75
107.75
108.5
108.8125
108.5625
108.875
109.125
108.4375
107.75
108.0
108.8125
109.1875
108.625
107.6875
107.5
108.0
108.375
108.6875
108.4375
108.0625
108.1875
108.875
109.0
108.25
107.4375
107.0625
107.625
107.0625
106.5
107.625
107.75
107.6875
108.3125
108.375
108.3125
108.5
108.6875
108.625
108.1875
107.9375
108.0625
108.875
109.125
108.25
107.6875
108.3125
109.0625
109.25
108.9375
108.75
108.75
108.3125
107.9375
108.8125
111.0625
111.9375
109.75
109.125
107.375
105.875
107.5
108.6875
108.4375
106.0625
104.625
104.9375
106.0625
108.375
109.0625
109.8125
111.4375
112.0
110.3125
109.4375
108.5625
107.875
106.0
103.625
104.625
104.125
103.6875
109.125
112.6875
110.875
111.6875
112.4375
110.875
109.5625
108.5625
108.75
110.125
110.6875
111.5
112.0625
109.9375
104.625
104.875
107.0625
106.9375
109.375
107.9375
106.0
109.75
110.0
106.875
108.1875
109.4375
107.3125
107.625
109.1875
108.5
107.375
107.375
108.0
108.8125
109.25
109.25
109.875
110.3125
108.5625
108.5
110.1875
111.5
110.5625
108.125
110.25
110.75
106.5
104.8125
108.9375
111.5625
104.125
103.0625
113.1875
119.0
107.875
99.1875
109.5625
118.25
110.25
101.125
99.25
101.9375
106.0
108.5625
112.75
113.0
107.875
107.5
111.1875
109.3125
104.375
106.6875
111.75
111.0
108.75
105.25
104.25
108.0
110.875
109.625
106.375
107.8125
110.0625
109.1875
111.25
112.1875
109.5
107.3125
106.0625
108.5625
111.25
104.875
100.375
104.625
107.5
108.625
112.8125
110.625
102.0
100.9375
106.75
111.3125
109.5625
107.3125
106.375
106.75
108.25
107.1875
105.0625
105.625
106.0
105.875
108.625
112.6875
114.125
110.6875
107.75
107.875
105.6875
101.625
102.125
101.25
94.6875
90.3125
93.5
97.0
96.6875
98.375
102.5625
106.1875
110.1875
113.625
113.4375
111.4375
111.5625
112.0625
109.0
102.25
98.5625
102.0625
107.9375
110.6875
109.5
106.25
104.6875
106.1875
107.5
107.5625
108.875
111.625
112.625
110.9375
109.125
106.125
101.5
98.75
97.875
98.875
103.9375
110.5625
110.4375
104.5
102.125
104.375
106.0625
106.8125
108.0625
108.3125
107.375
106.3125
106.125
106.3125
106.1875
106.5
107.1875
107.5625
107.5625
107.4375
107.375
107.5
107.625
107.0625
106.1875
105.875
106.1875
106.5625
106.875
106.5625
105.6875
105.4375
105.875
105.375
104.0
103.5625
103.625
103.625
103.5625
103.375
102.9375
101.8125
100.25
101.5625
103.5
102.1875
103.5
106.0625
105.9375
107.0625
111.1875
116.75
118.875
116.5
115.625
111.75
106.4375
106.75
110.5
111.5625
109.75
108.75
108.375
105.6875
104.5
107.125
109.5
110.0625
110.375
110.5625
110.1875
109.5
109.0625
108.0625
106.3125
105.0625
109.6875
116.5625
110.125
99.5625
100.5625
105.6875
107.625
106.375
103.25
101.75
102.1875
95.9375
90.8125
103.25
117.3125
119.125
104.4375
95.4375
93.75
97.9375
107.3125
112.8125
113.0625
110.8125
106.4375
103.375
106.625
114.25
117.5625
113.5625
112.875
116.8125
114.4375
109.5
106.1875
97.875
87.6875
88.8125
103.0
104.6875
92.625
95.5625
108.1875
105.625
102.125
107.3125
105.9375
100.5
102.625
106.25
103.0
100.875
105.4375
99.8125
97.4375
105.75
108.3125
108.1875
105.0625
101.1875
102.5
103.5
101.625
103.5625
108.75
108.4375
103.375
102.9375
105.125
103.125
101.375
105.0625
108.6875
106.6875
104.5625
105.9375
105.0
101.5
101.1875
108.25
113.1875
103.875
97.125
104.0625
108.1875
104.9375
106.625
112.1875
109.6875
107.6875
109.0
105.375
102.0
103.4375
108.75
110.3125
107.375
107.9375
109.9375
109.25
106.5625
105.3125
106.0
107.25
107.125
106.625
108.1875
109.4375
109.3125
110.125
112.25
113.375
110.6875
105.5625
105.375
111.0625
111.3125
107.0625
107.6875
109.9375
108.8125
106.9375
108.3125
110.5
109.75
108.3125
108.1875
108.75
108.0625
107.3125
108.625
109.3125
108.5625
108.875
109.75
110.125
109.4375
108.875
108.75
108.125
109.75
111.0
108.6875
108.8125
111.0
109.9375
107.9375
109.4375
114.25
111.75
102.375
107.625
113.125
109.25
107.3125
109.375
109.25
108.0
108.1875
108.9375
109.4375
109.875
108.4375
107.75
108.9375
109.5625
109.8125
109.3125
108.75
108.625
107.5625
106.6875
108.875
110.5
109.0
109.25
109.0625
108.125
110.0
111.375
110.25
108.6875
109.0
111.6875
110.5625
106.8125
106.4375
111.0625
112.8125
107.75
107.6875
113.5
111.5
103.8125
106.875
115.5625
111.75
105.0625
110.8125
116.8125
110.75
105.0625
108.1875
111.8125
110.6875
109.6875
110.875
111.5625
110.625
109.125
110.125
112.1875
108.375
107.125
114.625
115.9375
106.5
103.6875
110.75
112.3125
107.75
108.0625
112.3125
112.375
109.8125
110.1875
111.8125
111.4375
109.875
111.125
114.5
115.5625
113.1875
111.125
111.75
113.375
112.125
110.125
110.5625
113.0625
112.1875
108.5625
108.6875
110.0
110.125
109.1875
107.5
107.1875
107.625
107.5625
108.875
110.75
109.1875
106.25
106.375
109.625
110.1875
108.875
110.3125
107.0625
103.75
107.75
113.125
115.5
110.6875
106.8125
110.3125
110.625
106.9375
104.375
103.6875
107.125
111.875
110.125
101.125
92.5
94.875
101.4375
101.9375
94.4375
67.3125
84.25
151.0625
136.6875
86.5
103.25
127.9375
110.4375
97.125
109.125
114.875
107.0
105.375
110.875
112.4375
109.0
106.25
105.625
104.375
103.5625
105.25
106.4375
105.875
105.9375
106.0
106.125
106.4375
106.25
105.625
105.25
105.9375
106.125
104.75
104.3125
106.375
108.4375
108.625
108.1875
108.0625
108.5625
108.875
109.5
109.125
106.75
105.75
106.3125
106.25
105.375
106.9375
108.125
106.9375
106.75
107.125
107.125
107.75
106.5625
104.3125
104.5
104.5
104.5
105.5625
105.25
104.3125
103.75
105.25
106.75
105.9375
105.375
105.125
105.4375
106.5625
106.1875
104.5
105.6875
108.6875
108.125
106.8125
107.8125
109.0625
107.75
105.4375
103.4375
103.1875
105.125
107.25
106.3125
106.0
106.6875
105.6875
106.4375
107.875
107.625
107.1875
108.0
108.4375
107.1875
106.375
107.5
108.3125
107.5
106.4375
106.3125
105.9375
105.75
106.125
106.25
105.875
105.3125
104.8125
105.625
106.125
105.5
105.9375
106.3125
106.1875
105.875
105.1875
105.75
106.5
105.8125
104.9375
105.75
107.125
107.5
106.75
107.5625
107.8125
105.8125
104.75
105.6875
106.3125
106.3125
106.0
105.5
104.9375
104.8125
105.75
107.125
107.4375
106.3125
104.875
104.5
105.4375
106.6875
107.4375
106.8125
104.9375
103.875
105.0
107.125
107.8125
106.5
105.0625
104.6875
105.25
106.125
106.5625
106.1875
105.6875
105.375
105.625
106.1875
106.1875
105.8125
105.5625
105.5
105.3125
105.4375
105.6875
105.875
105.875
106.0
105.875
105.5
105.25
105.3125
105.6875
106.0625
106.1875
106.0625
105.75
105.625
105.875
106.3125
106.4375
106.0625
105.4375
105.25
105.625
106.1875
106.3125
106.125
105.75
105.5625
105.5625
105.8125
105.9375
106.0
105.8125
105.4375
105.3125
105.5
105.8125
105.6875
105.0625
104.625
105.0625
105.6875
105.9375
105.75
104.8125
104.0
105.0
106.6875
107.3125
106.125
104.4375
104.3125
105.5
106.625
107.125
106.625
105.25
104.125
104.5625
105.875
106.625
106.5625
105.75
105.0
104.5625
105.125
106.125
106.5
106.0
105.125
104.375
104.5
105.375
106.0
105.875
105.1875
104.5625
104.3125
104.4375
105.0625
105.625
105.375
104.625
104.125
104.375
105.125
105.6875
105.5625
105.0625
104.6875
104.8125
105.3125
105.6875
105.6875
105.25
104.9375
104.875
105.25
105.625
105.75
105.5
105.0625
104.8125
105.125
105.5625
105.625
105.25
104.9375
104.8125
105.0
105.3125
105.3125
105.1875
104.875
104.5625
104.4375
104.625
104.9375
104.9375
104.625
104.4375
104.5
104.625
104.8125
104.875
104.875
104.875
104.9375
105.0
105.0625
105.125
105.1875
105.125
105.125
105.125
105.0625
105.125
105.25
105.1875
105.0
104.9375
104.9375
105.0625
105.125
105.25
105.375
105.375
105.375
105.375
105.1875
105.0625
104.75
104.375
104.5
104.6875
104.75
104.5625
104.4375
104.5625
104.75
104.8125
104.625
104.6875
104.875
104.875
104.8125
105.0
105.125
105.125
105.125
105.1875
105.1875
105.125
105.125
105.25
105.5
105.5625
105.375
105.1875
105.3125
105.4375
105.375
105.3125
105.625
105.625
105.3125
105.0
104.9375
105.0625
105.4375
105.8125
105.5
104.6875
104.0
104.4375
105.3125
105.6875
105.3125
104.6875
104.0
103.9375
104.75
105.5625
105.6875
105.0
104.3125
104.0625
104.6875
105.75
106.375
105.8125
104.9375
104.4375
104.6875
105.5
106.125
106.0
105.3125
104.6875
104.6875
105.25
105.8125
106.0625
105.75
105.25
104.875
105.0625
105.6875
106.0625
105.75
105.3125
104.9375
104.6875
104.6875
105.0
105.1875
105.0
104.6875
104.625
104.75
104.875
104.9375
104.9375
105.1875
105.1875
104.9375
104.6875
104.75
105.1875
105.5
105.5
105.3125
105.0
104.6875
104.8125
105.25
105.5625
105.375
104.9375
104.5625
104.8125
105.3125
105.625
105.625
105.25
104.8125
104.625
104.75
105.125
105.4375
105.3125
104.75
104.375
104.375
104.875
105.25
105.1875
104.6875
104.1875
104.125
104.375
104.75
104.8125
104.625
104.375
104.25
104.5
105.0
105.3125
105.25
104.875
104.6875
104.8125
105.125
105.375
105.375
105.25
105.125
105.125
105.1875
105.375
105.4375
105.375
105.25
105.0625
105.0
105.0625
105.125
105.1875
105.0625
104.8125
104.75
104.8125
104.75
104.75
104.75
104.6875
104.5625
104.5625
104.5
104.5
104.5625
104.6875
104.75
104.75
104.75
104.875
105.0
105.125
105.25
105.3125
105.3125
105.1875
105.1875
105.375
105.5
105.625
105.625
105.25
105.0625
105.25
105.5
105.6875
105.6875
105.375
105.0
104.8125
104.875
105.125
105.5625
105.6875
105.375
104.9375
104.9375
105.0625
105.1875
105.3125
105.25
104.9375
104.625
104.5625
104.8125
105.0
105.0625
104.6875
104.3125
104.625
105.3125
105.75
106.0625
105.9375
105.5625
105.3125
105.375
105.875
106.125
105.625
105.375
105.5625
105.5625
105.375
104.375
104.9375
104.8125
106.125
105.625
104.3125
105.625
105.75
105.4375
106.125
106.125
105.625
105.5625
104.8125
104.8125
105.1875
104.5625
104.25
105.25
105.1875
103.375
103.5
103.75
104.0625
104.875
103.0625
102.1875
104.375
105.8125
105.625
104.5
104.25
105.3125
107.4375
106.625
101.9375
101.875
106.875
107.9375
104.4375
103.4375
105.0
104.6875
104.0
105.125
105.875
105.25
105.0625
105.875
106.125
105.875
105.5625
105.25
104.875
104.125
103.75
103.875
104.125
104.25
104.0625
104.25
104.75
104.6875
104.625
104.1875
104.4375
105.5625
105.75
104.625
103.6875
103.3125
104.0
105.1875
105.25
104.8125
105.1875
105.125
104.0625
103.625
104.625
106.125
106.0625
104.5625
103.875
104.375
104.6875
104.875
104.5625
104.1875
104.375
104.625
104.3125
103.6875
103.5625
104.0
104.3125
104.3125
104.1875
104.0625
103.8125
103.875
104.5
104.9375
104.6875
103.6875
103.3125
104.25
104.75
104.125
103.375
103.25
103.5625
104.125
104.3125
103.875
103.375
102.9375
102.4375
102.8125
104.4375
105.375
104.1875
102.75
102.6875
103.5
103.8125
103.8125
103.75
103.4375
102.8125
102.75
103.75
104.5
103.9375
102.875
102.1875
101.4375
101.0
101.9375
105.125
107.0625
105.875
104.3125
104.875
105.5
104.625
104.0
102.625
99.875
99.625
101.75
101.75
100.6875
101.9375
103.875
104.375
104.125
105.25
105.875
104.375
103.875
103.8125
103.25
102.375
102.0
102.625
103.3125
103.75
105.0625
106.125
104.9375
102.625
102.0
103.375
104.25
104.5625
105.1875
105.3125
104.5625
104.4375
104.75
102.6875
99.0625
99.8125
103.125
103.4375
102.6875
104.4375
106.0
105.25
104.625
102.875
99.6875
99.9375
104.1875
107.625
108.0
106.75
105.625
104.125
100.875
96.6875
96.0
100.6875
106.125
109.125
110.3125
108.3125
104.25
100.875
99.375
99.75
100.5625
101.5
103.875
105.875
105.5
103.1875
100.75
100.125
101.5625
103.6875
105.125
105.4375
104.875
104.4375
104.0
103.0
102.375
102.9375
103.4375
103.6875
104.4375
104.8125
103.5
102.125
102.625
104.0
104.375
104.25
104.375
104.3125
103.8125
103.25
103.25
103.875
104.125
103.75
103.6875
104.0
104.1875
104.5
105.1875
104.8125
103.0
101.6875
101.8125
102.625
102.9375
102.25
101.9375
103.5
105.875
107.375
106.75
104.0625
102.25
102.6875
103.3125
103.4375
103.6875
103.875
104.3125
105.25
105.8125
105.25
104.125
103.1875
102.6875
102.6875
103.625
104.8125
104.8125
104.25
104.6875
105.3125
104.75
103.9375
103.6875
103.375
102.625
101.5
101.125
103.0625
106.1875
107.0
104.9375
101.8125
99.0
97.8125
99.375
101.1875
101.3125
107.125
115.0
113.4375
111.25
106.0625
100.3125
99.6875
101.0
101.4375
103.75
107.375
108.1875
105.25
101.0625
99.5
101.5
105.25
107.75
107.875
105.9375
103.875
102.9375
102.875
103.0
103.5
105.0
105.625
104.4375
102.875
102.25
103.125
104.6875
105.625
105.3125
103.75
102.1875
102.25
103.5625
104.75
104.875
103.9375
102.625
101.9375
102.375
103.375
104.25
104.5
103.9375
102.9375
102.375
102.875
103.75
104.0
103.4375
102.25
101.5
101.875
102.6875
102.9375
102.875
102.9375
102.6875
102.25
102.3125
102.75
102.8125
102.5
101.9375
101.5625
101.375
101.5
101.9375
102.25
102.3125
102.125
102.0
102.1875
102.625
102.5625
102.5625
102.75
102.75
102.5
102.4375
102.5
102.75
103.0
103.25
103.25
102.875
102.5625
102.5625
102.8125
103.0
102.875
102.4375
102.1875
102.375
102.875
103.3125
103.4375
103.25
102.875
102.625
102.5625
102.625
102.6875
102.625
102.3125
102.1875
102.25
102.5625
102.875
103.0
102.75
102.5
102.4375
102.625
102.875
103.1875
103.1875
103.0625
102.9375
102.9375
103.0
103.1875
103.1875
102.875
102.625
102.5625
102.6875
102.875
103.0625
103.1875
103.0
102.9375
103.0625
103.125
103.0
102.875
102.625
102.375
102.375
102.5
102.625
102.5
102.25
102.0625
102.125
102.25
102.25
102.1875
102.0625
102.0625
102.25
102.5
102.625
102.4375
102.0
101.6875
101.4375
101.375
101.5625
101.6875
101.4375
101.1875
101.25
101.5
102.0
102.3125
101.875
100.9375
100.25
100.5625
101.1875
101.4375
101.1875
100.625
100.125
100.125
100.6875
101.3125
101.1875
100.25
99.3125
99.25
99.9375
100.5
100.625
100.375
99.875
99.6875
100.0625
100.625
101.125
101.125
100.625
100.125
100.1875
100.8125
101.375
101.5
101.0
100.5625
100.4375
100.625
101.0
101.375
101.3125
100.75
100.3125
100.5
101.1875
101.625
101.5
101.0625
100.625
100.625
100.875
101.0625
101.0625
100.9375
100.6875
100.375
100.375
100.625
100.8125
100.6875
100.5625
100.5625
100.875
101.1875
101.1875
101.125
101.0625
101.0625
101.125
101.1875
101.1875
101.375
101.3125
101.1875
101.4375
101.75
101.5625
101.375
101.5
101.4375
101.1875
101.25
101.3125
101.375
101.5
101.5
101.375
101.375
101.4375
101.5
101.5
101.5625
101.625
101.5
101.375
101.375
101.4375
101.25
101.0625
101.0
101.0
100.9375
100.9375
101.0625
101.0
100.75
100.625
100.75
100.875
100.6875
100.3125
100.125
100.375
100.6875
100.5
100.25
100.3125
100.4375
100.3125
100.1875
100.125
99.9375
99.875
99.9375
99.875
99.6875
99.5
99.5625
99.6875
99.6875
99.5625
99.375
99.3125
99.3125
99.25
99.125
99.1875
99.125
98.875
98.6875
98.9375
99.1875
99.3125
99.25
99.25
99.3125
99.5
99.625
99.6875
99.6875
99.5625
99.5625
99.6875
99.9375
99.9375
99.6875
99.5625
99.75
99.875
99.9375
99.9375
100.0625
100.0625
100.0
100.125
100.25
100.125
99.8125
99.6875
99.75
99.8125
99.75
99.75
99.8125
99.875
99.8125
99.5625
99.5
99.5
99.5625
99.5
99.4375
99.625
99.9375
100.0625
100.0
99.9375
99.875
99.875
100.125
100.5625
100.8125
100.625
100.1875
100.0625
100.3125
100.4375
100.5625
100.625
100.75
100.6875
100.5
100.4375
100.625
100.75
100.625
100.25
99.75
99.625
100.0625
100.6875
100.9375
100.75
100.4375
100.3125
100.375
100.5625
100.8125
100.8125
100.25
99.6875
99.75
100.25
100.75
100.75
100.5
100.25
100.1875
100.375
100.5625
100.75
100.75
100.6875
100.5
100.625
101.0
101.375
101.3125
101.0
100.8125
100.875
101.0
100.875
100.625
100.5
100.625
100.5625
100.5625
100.8125
101.125
101.0625
100.6875
100.4375
100.4375
100.5
100.625
100.6875
100.75
100.75
100.75
100.8125
100.875
101.0
100.9375
100.8125
100.5
100.3125
100.625
101.25
101.6875
101.6875
101.3125
101.125
101.125
101.25
101.375
101.4375
101.4375
101.375
101.25
101.375
101.75
102.0625
101.875
101.4375
101.1875
101.3125
101.5625
101.5625
101.4375
101.5625
101.5625
101.25
101.0
101.1875
101.5
101.375
101.0
100.9375
101.375
101.6875
101.75
101.8125
101.875
101.6875
101.5625
101.75
102.0
102.0625
101.9375
101.9375
102.125
102.4375
102.5
102.375
102.1875
102.1875
102.125
102.125
102.125
102.25
102.3125
102.1875
102.1875
102.3125
102.375
102.3125
102.1875
101.9375
101.875
102.1875
102.625
102.625
101.9375
101.4375
101.8125
102.375
102.375
102.125
101.8125
101.5625
101.5625
102.125
102.9375
103.25
102.4375
101.3125
101.1875
102.25
103.6875
104.0625
103.125
102.0
101.75
102.1875
103.0
103.6875
103.375
102.1875
101.3125
101.6875
103.0625
104.1875
103.9375
102.625
101.625
101.6875
102.625
103.5
103.5
102.6875
101.625
101.25
101.875
102.9375
103.6875
103.1875
101.9375
101.375
102.0
103.125
103.625
103.3125
102.6875
102.25
102.25
102.75
103.5
103.875
103.25
102.375
102.1875
102.8125
103.4375
103.625
103.375
102.9375
102.6875
102.8125
103.25
103.8125
103.9375
103.375
102.75
102.6875
103.0625
103.5
103.875
103.8125
103.1875
102.75
102.875
103.3125
103.5625
103.5625
103.1875
102.875
102.875
103.25
103.8125
103.9375
103.5
103.0625
103.125
103.4375
103.9375
104.25
104.0625
103.6875
103.5625
103.75
104.0
104.25
104.375
104.0625
103.5625
103.5625
103.8125
104.125
104.3125
104.0
103.625
103.5
103.8125
104.125
104.3125
104.25
103.9375
103.375
103.5625
104.75
105.0
103.625
102.625
103.375
104.1875
104.1875
104.375
104.375
103.5
103.1875
103.9375
104.625
104.9375
104.3125
103.25
104.5
105.375
103.9375
103.625
105.375
105.3125
104.625
104.4375
104.375
105.25
105.75
105.3125
104.4375
103.875
103.375
102.3125
99.875
94.8125
88.5625
85.9375
90.75
108.1875
112.3125
94.5625
101.5
123.1875
119.8125
112.0625
117.6875
117.5
109.625
108.0
109.75
107.1875
102.3125
98.9375
99.9375
102.8125
103.5625
102.875
103.0625
104.5625
105.8125
105.4375
104.0
103.5
103.25
103.5
104.375
105.875
106.25
104.4375
103.1875
103.25
103.4375
103.5625
104.25
104.75
104.4375
104.3125
104.75
105.125
105.0625
105.0
105.0
104.375
105.3125
107.375
106.5625
105.3125
105.875
106.0625
105.625
105.4375
105.3125
104.5625
104.25
104.9375
105.4375
105.3125
105.125
105.5
105.8125
105.6875
105.3125
105.0
104.9375
105.0
105.0625
105.0
104.9375
104.8125
104.6875
104.75
104.75
104.6875
104.375
104.0
104.3125
105.0
104.9375
104.5625
105.0625
105.3125
105.25
105.4375
105.5625
105.5
105.5
105.6875
105.8125
105.9375
105.9375
105.875
106.0
106.1875
105.75
105.4375
106.125
106.0
105.6875
106.375
106.5625
105.25
105.5625
106.4375
106.1875
106.0
106.0625
105.6875
105.4375
105.8125
106.0
105.9375
105.9375
105.875
105.6875
105.6875
105.625
105.5625
105.5625
105.6875
105.6875
105.5
105.4375
105.5
105.5
105.4375
105.25
105.125
104.9375
105.0625
105.5
105.625
105.75
106.4375
106.6875
106.375
106.5
106.5625
106.125
106.25
106.875
107.0625
106.6875
106.5
106.5
106.5625
106.5625
106.6875
106.6875
106.5625
106.125
105.875
106.1875
106.5625
105.9375
105.5
106.125
106.75
106.625
106.1875
105.8125
105.875
106.0625
106.125
106.25
106.0625
105.1875
105.0625
105.6875
106.0625
106.25
106.1875
105.9375
105.75
105.875
106.3125
106.75
106.9375
106.6875
106.375
106.3125
106.375
106.625
106.875
107.0
106.8125
106.5
106.4375
106.375
106.4375
106.3125
106.125
106.1875
106.375
106.0625
105.9375
106.1875
106.1875
105.875
105.5
105.6875
106.25
105.4375
103.1875
102.5625
105.3125
107.75
107.0625
106.125
106.0
105.125
103.6875
102.75
103.125
105.3125
106.75
105.875
105.25
108.1875
110.5
107.875
105.1875
105.4375
104.9375
103.4375
104.0
105.625
106.0625
105.5625
104.5625
102.0
101.6875
109.25
114.375
108.5
103.1875
107.1875
112.75
112.1875
108.0625
106.25
105.375
106.875
111.125
111.5
106.9375
103.0
103.5625
107.125
109.0
107.625
105.6875
105.4375
106.4375
107.4375
107.625
107.0625
106.3125
106.25
106.625
107.375
108.375
107.9375
106.0
105.8125
107.125
107.375
108.25
109.125
106.8125
104.875
106.8125
108.875
108.0
106.25
105.9375
106.5625
107.1875
107.25
106.875
107.25
107.25
106.0
105.4375
106.5
107.875
107.875
106.875
106.375
107.125
107.875
107.875
107.0625
106.25
106.3125
106.875
107.3125
108.1875
108.9375
108.25
107.4375
107.9375
108.25
107.875
107.6875
107.6875
107.5625
107.5625
107.8125
107.9375
107.6875
107.75
107.8125
107.3125
106.9375
107.1875
107.625
107.6875
107.25
106.9375
107.125
107.3125
107.75
108.25
108.1875
107.75
107.5625
107.75
107.75
107.5
107.5625
108.0
108.0625
108.0625
107.9375
107.875
107.75
107.875
108.0625
108.1875
108.125
107.75
107.5625
107.75
108.1875
108.1875
107.6875
107.5625
107.8125
107.8125
107.4375
107.375
107.6875
107.75
107.3125
107.25
107.625
107.6875
107.1875
106.9375
107.0625
107.1875
107.1875
107.0625
107.0
107.0625
107.3125
107.3125
107.3125
107.5
107.6875
107.875
107.9375
107.75
107.75
107.9375
108.0
108.125
108.0625
107.9375
108.0
108.0625
108.0
107.9375
108.0
108.0
107.875
108.4375
108.625
108.0
107.875
107.9375
107.9375
108.1875
108.25
108.1875
108.0
107.75
107.625
108.0
108.125
107.75
107.4375
107.5625
107.9375
108.0
108.0
108.125
108.3125
108.25
108.1875
108.125
108.0
107.9375
108.25
108.75
108.875
108.375
108.25
109.0
109.0625
108.625
109.0
109.125
108.6875
108.625
109.0
108.875
108.5625
108.625
108.75
108.5
108.4375
108.9375
109.625
108.6875
108.0
108.25
108.375
108.625
109.0
109.0
108.375
108.125
108.8125
108.875
108.3125
108.1875
108.5
108.625
108.75
108.6875
108.4375
108.25
108.625
108.8125
108.875
108.8125
108.8125
109.0625
109.3125
109.3125
109.125
109.4375
109.3125
109.0
109.3125
109.625
109.5
109.25
109.25
109.25
109.3125
109.3125
109.1875
109.25
109.4375
109.4375
109.125
108.75
109.1875
109.4375
109.0
108.75
108.6875
108.8125
109.3125
109.5
108.25
107.0625
107.6875
109.5625
110.6875
109.8125
108.375
108.25
108.5625
109.5625
110.5
110.125
110.0625
109.875
109.0
109.1875
109.75
109.75
109.6875
109.5
109.25
109.1875
109.5625
109.875
109.875
109.5625
109.8125
110.1875
110.0625
109.875
109.6875
110.0
110.5
110.25
109.625
109.25
109.0
108.4375
108.625
109.8125
110.1875
109.5
109.0625
109.3125
109.8125
110.125
110.0625
109.75
109.9375
110.25
110.3125
109.9375
109.5625
109.6875
110.125
110.125
110.0625
110.1875
110.3125
110.375
110.125
109.5625
109.5
109.875
110.125
109.8125
108.9375
109.125
110.6875
111.4375
110.875
110.0625
109.375
109.4375
110.5625
111.5
110.875
109.625
109.3125
109.875
110.1875
109.375
108.75
109.6875
110.4375
109.875
109.3125
109.1875
109.25
109.75
110.4375
110.625
110.5625
110.75
111.125
111.125
111.0625
111.4375
111.75
111.375
110.8125
110.625
110.875
111.25
111.375
111.1875
110.5625
109.8125
109.4375
109.625
110.3125
111.0
110.625
109.625
109.625
110.375
110.875
110.8125
110.75
110.9375
110.9375
110.75
110.5625
110.5
110.4375
110.4375
110.5
110.5625
110.5625
110.5625
110.5
110.5625
110.875
111.1875
111.1875
111.0
111.0625
111.25
111.25
111.25
111.3125
111.125
110.875
110.9375
111.125
111.1875
111.0625
110.875
110.875
111.0
111.4375
111.6875
111.625
111.75
109.5
107.125
110.0
113.5625
112.375
109.75
108.75
108.25
110.1875
113.375
113.4375
111.25
109.875
109.5625
110.3125
111.8125
112.5
111.8125
110.375
109.375
110.1875
111.9375
112.0
110.9375
110.5
110.75
111.1875
111.9375
111.875
111.0
110.375
111.0
112.0625
112.125
111.125
110.1875
110.5625
111.625
112.0
111.5
110.875
110.4375
110.375
111.0625
111.5625
111.0625
110.4375
110.625
111.3125
111.5625
111.125
110.8125
110.75
111.125
112.0625
112.625
111.8125
110.375
110.3125
111.4375
112.375
112.125
111.375
110.9375
110.9375
111.25
112.0625
112.5625
112.3125
111.625
111.1875
111.1875
111.625
111.875
111.875
111.5
111.3125
111.375
111.1875
111.0625
111.5625
111.6875
110.875
110.8125
111.875
111.5
110.375
110.875
112.0
112.0625
111.6875
111.5
110.9375
110.75
111.625
112.75
112.875
112.0625
111.4375
111.5625
112.0625
112.4375
112.5
112.0625
111.375
111.625
112.375
112.625
112.3125
112.25
112.1875
112.25
112.4375
112.3125
111.75
111.5
111.9375
112.25
112.0625
111.6875
111.5
111.625
111.8125
111.8125
111.9375
112.1875
111.625
111.0625
111.6875
112.375
111.8125
111.375
112.0
112.6875
112.5
111.875
111.375
111.6875
112.8125
113.4375
112.5625
111.375
111.5
112.4375
112.6875
112.5
112.375
112.25
112.125
112.5625
113.1875
112.8125
111.875
111.625
112.3125
112.625
112.1875
111.8125
111.875
112.25
112.3125
112.1875
112.0625
112.125
112.3125
112.3125
112.25
112.375
112.3125
112.125
112.0625
112.3125
112.5625
112.5
112.4375
112.4375
112.5
112.5
112.375
112.3125
112.3125
112.375
112.4375
112.375
112.3125
112.375
112.625
112.8125
112.75
112.5
112.3125
112.3125
112.4375
112.3125
112.0625
112.0625
112.0625
112.125
112.1875
112.1875
112.0625
111.9375
111.9375
111.9375
111.9375
111.9375
111.8125
111.6875
111.875
112.125
112.1875
112.0625
112.0625
112.0625
112.25
112.375
112.375
112.25
112.1875
112.3125
112.5
112.625
112.625
112.5625
112.625
112.75
112.75
112.6875
112.6875
112.875
113.0625
113.0
112.875
112.875
112.8125
112.8125
112.75
112.625
112.375
112.375
112.4375
112.4375
112.5
112.375
112.25
112.3125
112.5
112.4375
112.4375
112.4375
112.4375
112.375
112.375
112.4375
112.4375
112.5
112.6875
112.8125
112.875
112.9375
112.9375
113.0
113.0625
113.0
113.0
113.0625
113.3125
113.3125
113.125
112.875
112.9375
113.25
113.3125
113.0625
112.875
113.0
113.375
113.4375
113.3125
113.25
113.25
113.25
113.1875
113.1875
113.0625
112.8125
112.8125
112.75
112.625
112.4375
112.5
112.8125
113.0
112.875
112.5625
112.5625
112.5625
112.5625
112.4375
112.3125
112.1875
112.0625
112.0
112.125
112.125
112.125
112.1875
112.3125
112.25
112.0
111.9375
111.8125
111.5625
111.5625
111.5
111.25
110.9375
111.0
111.0625
110.9375
110.75
110.5625
110.4375
110.6875
111.0625
111.125
110.9375
110.9375
111.125
111.25
111.1875
111.0625
110.875
110.75
110.6875
110.75
110.9375
111.0
111.0
111.1875
111.5
111.5
111.375
111.375
111.5
111.5
111.25
111.125
111.3125
111.5625
111.4375
111.1875
111.0625
111.0625
111.25
111.375
111.3125
111.125
111.0
111.0
111.0
110.9375
110.75
110.5
110.375
110.8125
111.5625
112.0
111.1875
110.0625
110.625
111.5
111.0625
110.125
110.375
111.5
112.0625
111.5625
110.75
110.875
112.0
112.625
111.5
110.25
110.6875
111.75
111.5625
110.75
111.0
111.3125
111.0
111.125
111.8125
111.9375
111.5
111.25
111.3125
111.75
111.875
111.0
110.625
111.625
112.25
111.3125
110.6875
110.875
111.0625
110.9375
109.125
108.25
111.25
113.875
112.5
108.8125
107.1875
110.25
113.1875
111.8125
110.5625
111.4375
109.3125
106.875
109.9375
113.0625
111.3125
109.3125
109.5
108.5625
107.5625
109.8125
112.4375
111.25
108.1875
107.75
109.0625
109.25
109.375
110.5
110.5625
108.75
107.25
107.75
109.0
109.625
109.5625
109.3125
108.625
107.625
107.375
108.375
109.625
110.0625
109.5
108.625
108.125
108.3125
109.0
109.75
109.9375
109.5
108.8125
108.5625
108.8125
109.1875
109.375
109.6875
109.75
109.4375
109.0625
109.0625
109.375
109.5625
109.5625
109.6875
109.625
109.125
108.6875
108.8125
109.25
109.5
109.4375
109.1875
109.125
109.0
108.875
109.0625
108.5
108.125
110.3125
111.0
108.125
107.25
109.1875
110.0
109.6875
109.9375
109.875
108.8125
108.3125
109.3125
110.375
110.0
109.3125
109.1875
109.0625
109.25
110.0
110.125
109.0625
108.5625
109.3125
109.8125
109.5
109.25
109.0625
108.75
109.125
109.8125
109.5625
108.8125
108.625
108.75
108.8125
109.0625
109.1875
108.625
108.0625
108.5
109.1875
109.25
108.875
108.75
108.875
109.0
109.1875
109.4375
109.625
109.5
109.4375
109.375
109.1875
109.375
109.8125
109.75
109.0
108.9375
109.9375
110.375
110.1875
109.5625
108.75
108.9375
110.125
110.8125
110.375
109.3125
108.9375
109.5
109.875
109.875
110.25
110.25
109.25
108.75
109.3125
109.5625
109.3125
109.5
109.8125
109.75
109.4375
109.25
109.1875
109.5
110.1875
110.5625
110.25
109.9375
110.125
110.25
110.3125
110.75
111.125
110.625
109.875
109.75
110.125
110.3125
110.1875
110.125
110.1875
110.3125
110.4375
110.5625
110.625
110.6875
110.5625
110.25
110.125
109.9375
109.5
109.25
109.375
109.5625
109.5
109.375
109.5625
110.1875
110.75
110.8125
110.6875
110.6875
110.9375
111.0625
110.6875
110.3125
110.1875
110.0625
110.0625
110.1875
110.1875
109.875
110.0625
110.375
109.3125
108.5625
110.4375
112.0625
112.375
111.625
109.75
108.8125
110.5
111.9375
111.0
110.125
110.0
110.125
109.0
108.0
111.125
112.9375
111.8125
110.125
109.1875
108.4375
109.625
112.0
110.3125
106.75
108.875
114.875
114.0625
108.875
109.0
112.1875
111.5625
109.625
109.875
110.375
110.8125
111.875
111.625
110.875
110.375
109.8125
111.1875
113.0625
111.9375
110.5
111.0625
111.75
111.125
110.5
110.3125
110.3125
110.375
110.6875
111.0625
111.25
111.1875
110.75
110.5625
111.0
111.5
111.5
111.3125
111.0625
110.875
110.875
110.875
111.0625
111.25
111.0625
110.5
110.25
110.25
110.375
110.5
110.75
110.8125
110.875
111.125
111.3125
111.0
110.8125
111.1875
111.6875
111.5625
111.3125
111.1875
111.1875
111.1875
111.375
111.5
111.5
111.25
110.5625
110.4375
110.875
110.6875
109.8125
109.4375
110.0
110.6875
110.5625
110.0
110.0
109.9375
110.0
110.875
111.0625
109.6875
108.8125
110.125
111.4375
112.0
111.9375
110.8125
110.0625
110.6875
111.4375
111.4375
111.5
111.125
110.125
110.0
111.5625
112.4375
111.5625
110.5625
110.125
110.0
110.875
112.375
112.0625
110.5
109.625
110.1875
110.9375
111.125
111.125
111.0
110.625
110.3125
110.5625
110.5
109.6875
109.25
109.875
110.625
110.375
110.125
110.0
109.875
110.1875
111.0
111.3125
110.375
109.25
109.25
110.25
110.625
110.125
109.8125
110.625
111.25
111.0
110.3125
109.8125
109.8125
110.375
111.125
110.875
109.6875
108.8125
109.4375
110.5
110.875
110.375
109.75
109.3125
108.6875
108.5625
109.5625
110.375
109.875
109.5
109.1875
108.6875
109.125
110.1875
110.4375
109.8125
109.4375
109.25
109.625
109.9375
109.9375
109.625
109.6875
110.0
110.0625
109.875
109.5
109.375
109.625
110.0
110.0625
109.8125
109.4375
109.3125
109.625
109.8125
109.75
109.5
109.4375
109.4375
109.25
108.9375
109.0
109.125
109.1875
109.1875
108.8125
108.6875
108.9375
109.25
109.375
109.25
108.9375
108.9375
109.375
109.5
109.375
109.375
109.3125
109.25
109.3125
109.5
109.375
109.1875
109.1875
109.3125
109.375
109.375
109.375
109.375
109.3125
109.25
109.3125
109.375
109.3125
109.125
109.0
108.875
109.0625
109.3125
109.125
108.5625
108.25
108.4375
108.6875
108.75
108.6875
108.75
108.6875
108.75
108.5625
108.1875
108.5625
109.5
109.875
108.9375
108.0
108.4375
109.5625
109.625
109.1875
108.875
108.625
108.5625
108.9375
109.4375
109.375
109.0
109.0625
109.5
109.4375
108.625
108.1875
108.8125
109.5625
109.3125
108.25
107.8125
108.625
109.125
108.4375
107.8125
108.1875
109.0
109.0625
108.5625
108.1875
108.1875
108.375
108.625
108.75
108.625
108.5
108.3125
108.0625
108.3125
108.625
108.625
108.5
108.625
108.6875
108.4375
108.5
108.75
108.75
108.25
108.0625
108.125
108.125
107.9375
107.5625
107.1875
107.125
107.125
108.1875
109.9375
109.4375
108.0
107.5
106.875
106.1875
106.8125
108.1875
108.375
107.5625
106.75
107.25
108.3125
108.4375
107.8125
107.4375
107.75
107.5625
107.1875
107.3125
108.125
108.75
108.8125
108.3125
107.6875
107.375
107.3125
107.5
107.75
108.0625
108.0625
108.0
107.875
107.625
107.5
107.75
108.1875
108.0625
107.6875
107.3125
107.0625
107.0625
107.3125
107.6875
107.75
107.3125
107.0
107.125
107.0625
106.875
106.875
107.125
107.3125
107.375
107.1875
107.125
107.4375
107.75
107.75
107.0625
106.5625
107.25
108.25
108.25
107.4375
106.8125
107.0625
107.75
107.75
107.4375
107.3125
107.4375
107.5625
107.625
107.625
107.25
107.0625
107.1875
107.4375
107.1875
106.9375
107.0
106.8125
106.625
106.8125
107.125
106.8125
106.5625
106.5625
106.5
106.25
106.5
106.875
106.8125
106.5625
106.5
106.6875
106.8125
107.0625
107.0625
106.8125
106.625
106.875
107.125
106.875
106.75
106.6875
106.6875
106.75
106.875
106.9375
106.9375
106.875
106.9375
107.0
106.5625
106.375
106.4375
106.5
106.3125
106.3125
106.375
106.3125
106.3125
106.3125
106.3125
106.1875
105.9375
105.875
105.8125
105.875
105.8125
105.875
106.125
106.1875
105.625
105.375
105.5625
106.0
106.1875
106.1875
106.125
105.9375
105.875
106.0625
106.1875
105.875
105.6875
105.9375
105.9375
105.625
105.375
105.5
105.8125
105.9375
105.8125
105.4375
105.125
105.1875
105.3125
105.25
105.25
105.375
105.4375
105.25
105.25
105.3125
105.25
105.25
105.1875
105.1875
105.3125
105.0625
104.75
104.875
105.125
105.25
105.25
104.9375
104.625
104.625
104.8125
104.8125
104.5625
104.4375
104.75
105.0625
104.5625
103.9375
103.8125
104.0
104.25
104.4375
104.1875
103.8125
103.375
103.0625
103.4375
104.1875
104.6875
104.0625
102.375
101.8125
103.0625
104.25
104.1875
103.5625
102.9375
102.875
103.4375
104.0625
104.0
103.6875
103.6875
103.9375
104.0625
104.0
103.5
102.875
103.9375
105.4375
104.375
103.4375
104.4375
104.1875
103.3125
103.875
104.3125
104.3125
104.875
104.75
103.625
103.0
104.0625
104.875
104.3125
103.5625
103.5625
104.3125
104.6875
103.75
102.875
103.3125
104.125
104.0
103.5
103.3125
103.3125
103.5625
103.6875
103.4375
103.75
104.3125
104.125
103.5
103.375
103.875
104.375
104.25
103.875
103.8125
104.125
104.1875
104.0
104.125
104.375
104.125
103.6875
103.75
104.25
104.4375
104.1875
103.875
103.875
104.125
104.125
104.0
104.0
103.9375
103.8125
103.75
103.5
103.5625
103.625
103.1875
103.0
103.625
103.875
103.4375
103.0625
103.125
103.5625
103.9375
103.9375
103.5625
103.4375
103.6875
103.8125
103.5625
103.625
104.0625
104.0
103.6875
103.75
103.75
103.6875
103.6875
103.75
103.8125
103.8125
103.9375
103.75
103.5625
103.6875
103.9375
103.8125
103.5625
103.625
103.5
103.375
103.375
103.3125
102.875
103.125
103.875
103.9375
102.9375
101.9375
102.4375
103.625
103.6875
103.5625
103.3125
102.375
102.375
103.4375
103.8125
103.4375
103.625
103.5625
103.0
103.25
104.0
104.125
103.25
102.125
102.375
103.9375
104.75
103.8125
102.25
102.125
103.4375
104.0625
103.5
102.8125
103.0
103.5625
103.4375
102.25
101.4375
102.3125
103.875
104.25
103.0625
101.75
101.75
102.75
103.125
102.75
102.5625
102.75
102.6875
102.4375
102.6875
103.125
103.25
102.9375
102.75
102.9375
103.375
103.4375
103.0625
102.9375
103.3125
103.875
103.8125
103.3125
103.0
103.125
103.4375
103.5625
103.4375
103.25
103.1875
103.1875
103.4375
103.5625
103.5
103.1875
103.0
103.125
103.25
103.25
102.9375
102.75
102.875
103.125
103.125
102.9375
102.6875
102.625
102.8125
102.875
102.6875
102.5625
102.4375
102.375
102.3125
102.375
102.3125
102.125
101.9375
101.875
101.9375
102.0
101.875
101.75
101.8125
101.9375
101.9375
101.75
101.5
101.4375
101.375
101.1875
101.125
101.0
100.8125
100.8125
100.875
100.9375
100.8125
100.75
100.75
100.75
100.6875
100.5625
100.3125
100.1875
100.3125
100.5625
100.5625
100.5625
100.5625
100.625
100.6875
100.5625
100.5
100.5
100.6875
100.9375
101.125
101.125
101.0
100.875
100.9375
101.1875
101.3125
101.125
100.9375
100.8125
101.0625
101.125
101.0
101.125
101.4375
101.625
101.375
101.0
100.9375
101.0
101.0
100.9375
100.875
100.8125
100.75
100.625
100.5625
100.6875
100.6875
100.3125
100.0625
100.25
100.75
101.0
100.875
100.6875
100.8125
101.0625
101.1875
101.0
100.875
101.0
101.3125
101.5
101.125
100.625
100.625
100.9375
101.0
100.8125
100.6875
100.8125
101.0
101.125
101.1875
100.9375
100.6875
100.625
100.625
100.625
100.5625
100.5625
100.5625
100.5625
100.625
100.5625
100.3125
100.1875
100.3125
100.3125
100.125
100.0625
100.375
100.75
100.6875
100.375
100.3125
100.5625
100.6875
100.8125
100.6875
100.5625
100.5625
100.6875
100.8125
100.8125
100.8125
100.875
100.9375
101.125
101.25
101.25
101.1875
101.0625
101.0625
101.1875
101.375
101.3125
101.0625
100.8125
100.625
100.75
101.0625
101.1875
101.0
100.6875
100.5625
100.6875
100.625
100.5625
100.625
100.75
100.8125
100.75
100.625
100.4375
100.375
100.3125
100.375
100.3125
100.0625
99.9375
100.0625
100.1875
100.25
100.125
99.9375
99.8125
99.625
99.5
99.4375
99.4375
99.5
99.4375
99.3125
99.25
99.25
99.25
99.25
99.125
99.0
99.0625
99.1875
98.625
98.375
98.8125
99.1875
99.0
98.75
98.6875
98.375
98.375
99.0625
99.5
99.1875
98.8125
99.0
99.0
98.9375
99.25
99.6875
99.625
99.375
99.3125
99.5625
99.75
99.625
99.6875
99.875
99.6875
99.625
99.625
99.5625
99.5
99.5625
99.6875
99.625
99.5
99.375
99.375
99.5
99.6875
99.6875
99.25
98.9375
98.875
99.25
99.9375
99.75
99.0
99.0625
99.6875
100.375
100.8125
100.5625
99.5625
98.6875
99.0
99.875
100.5625
100.4375
99.3125
98.5
98.9375
99.8125
100.5
100.25
99.375
98.875
99.4375
100.5
101.125
100.6875
99.4375
98.875
99.6875
100.75
100.5625
99.5
98.875
99.125
99.5625
100.0625
100.25
99.5
98.9375
99.4375
100.0
99.875
99.4375
98.75
98.3125
98.4375
98.9375
99.25
99.0
98.5
98.25
98.6875
99.25
99.125
98.8125
99.0625
99.375
99.3125
99.3125
99.4375
99.3125
99.1875
99.25
98.9375
98.375
97.6875
97.4375
97.6875
97.9375
97.8125
97.5
97.4375
97.5625
97.875
98.0625
97.875
97.625
97.5
97.4375
97.5625
97.6875
97.5625
97.3125
97.0625
97.5625
98.25
97.4375
97.0
98.1875
98.6875
97.625
97.0625
97.75
98.5625
99.0
98.9375
98.625
98.125
97.6875
97.9375
98.75
99.0
98.5625
98.3125
98.5
98.5625
98.4375
98.4375
98.5625
98.8125
99.0
98.75
98.1875
97.9375
98.0625
98.375
98.75
98.875
98.5
97.875
97.875
98.3125
98.6875
98.8125
98.6875
98.625
98.6875
99.0
99.1875
98.8125
97.875
97.75
98.875
99.8125
99.5625
98.6875
98.1875
98.4375
99.0625
99.5625
99.9375
99.9375
99.25
98.5
98.75
99.5625
100.0
99.75
99.25
99.0625
99.1875
99.25
99.125
99.125
99.4375
99.4375
99.0625
98.6875
98.5625
98.8125
99.0625
99.0625
98.875
99.125
99.625
99.8125
99.25
97.375
96.1875
98.375
100.9375
101.6875
101.5625
99.1875
95.8125
96.5
100.3125
101.125
101.1875
102.5625
99.4375
95.5
97.125
101.125
101.875
100.875
100.4375
99.125
97.5
98.0
100.1875
101.5625
101.375
99.9375
98.625
98.5
99.5
100.0625
99.625
99.5
99.6875
98.9375
98.5
99.3125
100.3125
102.3125
100.1875
96.25
100.0
102.6875
97.4375
94.5
99.125
103.25
102.75
100.125
97.25
98.0
101.6875
102.375
100.0625
98.75
98.6875
99.5
100.8125
101.1875
100.625
100.4375
100.6875
100.6875
100.4375
100.25
100.375
100.625
99.875
99.125
100.375
101.8125
100.625
98.75
99.0
99.8125
100.25
101.625
102.1875
100.3125
98.5625
99.0
101.3125
103.4375
99.8125
96.75
99.875
100.75
99.125
101.625
104.8125
105.5625
102.1875
96.125
95.5625
102.5
107.125
102.9375
96.3125
97.4375
103.625
103.9375
99.375
99.1875
103.375
104.75
101.5625
98.25
97.9375
100.9375
104.25
104.4375
101.4375
99.125
100.1875
102.25
101.9375
100.4375
101.375
103.125
102.75
100.6875
99.5625
101.1875
103.75
104.0
102.125
100.875
101.1875
101.5625
102.5
103.0
99.125
99.5625
108.6875
108.25
97.9375
95.625
101.0
104.625
104.0625
102.4375
103.3125
103.4375
100.6875
99.5
103.0
105.125
102.3125
101.6875
102.4375
99.9375
99.125
102.5
105.0625
104.1875
100.75
100.125
102.3125
102.0
104.5
109.125
103.0625
95.5625
102.0
104.9375
97.75
101.625
109.3125
105.0
100.875
103.0625
103.375
102.625
103.75
102.6875
101.0
102.375
103.75
102.8125
102.0625
102.75
104.1875
104.25
103.3125
103.375
103.25
101.875
101.875
103.1875
103.125
102.5
103.125
103.4375
102.5
102.1875
102.875
103.4375
103.0625
102.25
102.5
103.25
103.3125
103.0
103.1875
103.625
103.6875
103.5625
103.4375
103.5
103.5625
103.125
102.625
103.125
104.125
104.375
103.75
103.25
103.5
104.0
104.0625
103.625
103.3125
103.4375
103.8125
104.0
103.8125
103.5
103.625
103.75
103.75
103.6875
103.5
103.1875
103.0625
103.25
103.4375
103.4375
103.375
103.375
103.5625
103.75
103.875
103.8125
103.9375
104.0625
104.125
104.125
104.25
104.375
104.25
104.0625
104.1875
104.8125
105.625
104.375
101.625
102.75
106.25
105.8125
103.125
104.625
106.0625
102.25
100.1875
104.5625
108.1875
106.3125
103.1875
102.8125
103.75
104.0625
104.25
105.125
105.3125
103.8125
102.5625
102.9375
104.0625
104.8125
105.0
104.25
103.4375
104.125
105.1875
105.0
104.3125
104.5
105.0
105.0625
104.875
104.75
104.875
104.875
105.0
105.4375
105.5625
105.1875
104.8125
104.8125
105.0625
105.375
105.5
104.9375
104.25
104.4375
105.25
105.4375
104.875
104.5
104.5625
104.8125
105.0
105.0625
104.75
104.25
104.25
104.6875
105.125
105.125
104.6875
104.375
104.6875
105.3125
105.4375
105.125
105.0
105.1875
105.375
105.1875
105.0
105.3125
105.6875
105.6875
105.5
105.375
105.25
105.375
105.6875
105.75
105.875
105.75
105.0
104.5
105.0
105.875
105.9375
105.4375
105.0625
105.0625
105.1875
105.3125
105.125
104.6875
104.75
105.25
105.25
104.625
104.3125
104.6875
105.125
105.375
105.75
105.8125
105.25
104.8125
104.6875
104.9375
105.9375
106.9375
106.5
104.75
103.875
104.875
106.0625
106.1875
106.0
106.0
105.5
104.625
104.6875
105.75
106.3125
106.0
105.25
104.75
105.0
105.4375
105.625
105.4375
105.1875
105.125
105.0625
104.9375
104.6875
104.6875
104.875
105.0625
105.1875
105.25
105.0625
104.625
104.6875
105.3125
105.75
105.6875
105.3125
104.9375
104.9375
105.5
105.9375
105.875
105.5
105.375
105.5625
105.625
105.6875
105.9375
105.9375
105.5
105.5625
106.125
106.0625
105.1875
104.75
105.375
106.0625
106.0625
105.75
105.1875
104.6875
105.0625
105.8125
105.875
105.375
104.9375
104.9375
105.1875
105.375
105.375
105.0625
104.8125
104.8125
105.125
105.3125
105.0625
104.625
104.4375
104.625
104.9375
104.875
104.3125
103.9375
104.125
104.5
104.375
104.0
104.0625
104.5
104.4375
103.5625
103.0625
103.625
104.3125
104.0625
103.375
103.1875
103.5625
103.875
103.75
103.3125
103.0
102.875
102.9375
103.0
102.6875
102.5
102.875
102.9375
102.5625
102.625
103.1875
103.375
103.1875
103.3125
103.4375
103.3125
102.9375
102.875
103.0
103.125
103.9375
104.5625
104.0
103.0625
102.875
103.0625
103.625
104.6875
104.875
103.75
103.0625
103.5
103.625
102.9375
102.8125
103.375
104.125
104.875
104.6875
103.1875
102.0625
102.0625
103.0625
104.0625
104.25
103.8125
102.875
102.0
102.1875
103.375
104.25
104.1875
103.625
103.1875
102.9375
103.0
103.5625
103.8125
103.5625
103.5
103.25
102.5
102.6875
103.0
104.75
104.5
102.625
105.3125
106.25
102.0
100.5
103.125
103.8125
102.75
103.4375
103.4375
102.0625
102.3125
103.6875
104.5
104.125
102.875
103.0625
103.0
100.9375
102.6875
105.0
101.3125
100.25
103.625
102.625
100.0625
103.25
106.0
102.25
99.125
101.1875
103.5625
102.625
100.9375
101.4375
102.625
100.8125
97.8125
102.625
107.875
99.1875
92.75
103.375
108.9375
97.9375
95.3125
105.3125
106.3125
97.4375
94.1875
99.9375
103.9375
101.1875
99.0
100.0625
101.0625
101.625
101.375
98.0
96.9375
101.0625
101.875
98.5
98.75
101.8125
101.9375
100.0
99.3125
99.9375
101.125
101.75
101.125
100.1875
99.9375
100.6875
101.6875
101.5
100.125
99.625
100.9375
101.75
100.9375
100.375
100.8125
101.25
101.3125
101.0625
100.6875
100.875
101.375
101.125
100.125
99.875
100.625
101.3125
101.3125
100.625
100.125
100.0625
100.25
100.5625
100.875
100.875
100.3125
99.875
100.1875
100.875
101.1875
101.0
100.75
100.5
100.625
101.125
101.1875
100.9375
100.875
100.9375
101.0625
101.1875
101.3125
101.125
100.875
100.875
101.125
101.4375
101.4375
101.3125
101.0
101.0
101.25
101.375
101.25
101.0625
100.9375
100.9375
101.0
101.0
101.0
100.9375
100.75
100.5625
100.625
100.75
100.75
100.75
100.75
100.8125
100.875
101.0
101.125
101.125
101.1875
101.1875
101.1875
101.25
101.375
101.3125
101.1875
101.1875
101.3125
101.5
101.5625
101.5
101.375
101.375
101.5
101.625
101.5
101.4375
101.375
101.375
101.375
101.375
101.3125
101.3125
101.3125
101.25
101.25
101.25
101.1875
101.0625
101.0
101.0
101.0
101.0
100.875
100.6875
100.625
100.625
100.6875
100.6875
100.625
100.5
100.375
100.3125
100.3125
100.375
100.25
100.0
99.9375
100.0
100.0625
99.9375
99.75
99.6875
99.6875
99.6875
99.625
99.5
99.4375
99.25
99.25
99.25
99.1875
99.125
99.125
98.9375
98.8125
98.8125
98.6875
98.6875
98.8125
98.75
98.5
98.4375
98.75
99.0
99.0
98.875
98.875
99.0
99.125
99.1875
99.1875
99.25
99.25
99.375
99.375
99.5
99.5
99.4375
99.5625
99.75
99.6875
99.625
99.5625
99.6875
99.9375
100.0
99.75
99.4375
99.5625
99.75
99.75
99.5625
99.5
99.5
99.6875
99.875
100.0
99.9375
99.8125
99.625
99.5625
99.75
99.875
99.8125
99.5625
99.4375
99.5
99.625
99.625
99.5
99.4375
99.5
99.4375
99.4375
99.375
99.3125
99.3125
99.375
99.25
99.0625
98.875
98.875
98.875
98.8125
98.75
98.6875
98.6875
98.75
98.75
98.625
98.5
98.3125
98.25
98.3125
98.375
98.3125
98.375
98.6875
98.8125
98.8125
98.75
98.75
98.9375
99.0625
98.875
98.75
98.75
98.875
99.0
99.125
99.1875
99.25
99.3125
99.375
99.5
99.5625
99.5625
99.5625
99.5625
99.6875
99.8125
99.8125
99.625
99.4375
99.4375
99.5625
99.5
99.3125
99.1875
99.1875
99.25
99.3125
99.25
99.3125
99.4375
99.4375
99.3125
99.3125
99.5
99.625
99.5625
99.5
99.625
99.8125
99.8125
99.6875
99.5625
99.5625
99.6875
99.8125
99.75
99.75
99.8125
99.9375
100.0
100.0625
100.0625
100.0625
100.125
100.1875
100.1875
100.1875
100.125
100.0625
100.0
99.9375
99.875
99.75
99.6875
99.6875
99.75
99.8125
99.6875
99.625
99.6875
99.9375
100.125
100.125
100.0
100.0
100.1875
100.4375
100.5625
100.5
100.5
100.5
100.5625
100.5625
100.5625
100.5625
100.5625
100.75
100.875
100.75
100.6875
100.6875
100.75
100.875
101.0
100.9375
100.75
100.6875
100.75
100.75
100.75
100.8125
100.8125
100.8125
100.8125
100.8125
100.8125
100.75
100.6875
100.875
101.0625
101.1875
101.0625
100.875
100.875
101.1875
101.5625
101.6875
101.5625
101.375
101.375
101.625
101.8125
101.9375
101.875
101.8125
101.8125
101.875
101.9375
101.9375
101.9375
101.9375
101.9375
101.875
101.8125
101.6875
101.625
101.8125
102.0625
102.125
101.9375
101.6875
101.4375
101.4375
101.625
101.8125
101.8125
101.75
101.8125
102.0
102.0625
102.0
102.0
102.0625
102.1875
102.25
102.1875
102.1875
102.375
102.625
102.75
102.8125
102.75
102.6875
102.6875
102.8125
102.8125
102.625
102.5625
102.6875
102.9375
103.0625
103.0625
102.9375
102.75
102.75
102.8125
102.9375
102.875
102.75
102.625
102.5
102.5625
102.625
102.625
102.5625
102.625
102.625
102.5625
102.625
102.8125
103.0
103.125
103.1875
103.125
103.0625
103.0625
103.25
103.3125
103.3125
103.25
103.3125
103.4375
103.4375
103.4375
103.5
103.5625
103.75
103.75
103.625
103.6875
103.8125
103.9375
103.9375
103.75
103.6875
103.5625
103.5625
103.625
103.6875
103.5
103.3125
103.25
103.4375
103.6875
103.8125
103.625
103.375
103.5
103.75
104.0
103.875
103.8125
103.875
104.0
104.1875
104.25
104.125
104.0
103.9375
104.1875
104.4375
104.5625
104.4375
104.1875
104.25
104.625
104.9375
104.875
104.625
104.5625
104.625
104.8125
104.75
104.625
104.5625
104.625
104.875
104.875
104.625
104.4375
104.4375
104.5625
104.5625
104.5
104.3125
104.125
104.1875
104.4375
104.625
104.75
104.75
104.8125
104.875
104.9375
105.0625
105.1875
105.3125
105.4375
105.3125
105.125
105.125
105.3125
105.375
105.3125
105.25
105.375
105.4375
105.4375
105.5
105.6875
105.75
105.625
105.5
105.4375
105.375
105.5
105.5625
105.375
105.3125
105.375
105.4375
105.25
105.0625
105.1875
105.4375
105.375
105.125
105.0625
105.25
105.5625
105.625
105.5625
105.625
105.875
106.0
105.9375
105.875
105.875
105.875
105.875
105.9375
106.0625
105.9375
105.9375
106.0
106.125
106.125
106.125
106.0625
106.1875
106.25
106.25
106.125
106.0625
106.125
106.1875
106.3125
106.1875
106.0
105.875
105.875
105.8125
105.8125
105.875
105.875
105.6875
105.5625
105.8125
106.1875
106.25
106.0625
105.9375
106.0625
106.3125
106.4375
106.375
106.3125
106.5
106.625
106.75
106.6875
106.625
106.6875
106.8125
107.0
107.0
106.8125
106.6875
106.75
107.0
107.0
106.8125
106.625
106.5625
106.625
106.8125
106.8125
106.625
106.5
106.5625
106.6875
106.75
106.625
106.5
106.3125
106.1875
106.25
106.375
106.4375
106.625
106.9375
107.3125
107.4375
107.3125
107.1875
107.125
107.25
107.4375
107.3125
107.125
107.1875
107.3125
107.4375
107.375
107.3125
107.25
107.25
107.375
107.625
107.625
107.4375
107.3125
107.5625
107.75
107.6875
107.4375
107.25
107.4375
107.8125
108.0
107.875
107.625
107.5625
107.625
107.6875
107.5625
107.375
107.3125
107.375
107.3125
107.1875
107.1875
107.1875
107.25
107.3125
107.3125
107.1875
107.125
107.0625
107.0625
107.125
107.125
106.875
106.5625
106.5
106.75
107.0
106.9375
106.5625
106.3125
106.4375
106.625
106.5
106.125
105.8125
105.8125
105.875
105.9375
105.9375
105.8125
105.75
106.0
106.375
106.4375
106.1875
106.0625
106.25
106.5625
106.625
106.5625
106.5
106.5
106.6875
106.875
106.8125
106.75
106.6875
106.75
106.9375
106.9375
106.8125
106.6875
106.75
106.9375
107.0625
107.125
106.9375
106.875
106.875
106.875
106.9375
106.8125
106.625
106.625
106.6875
106.75
106.625
106.6875
106.9375
107.0
106.8125
106.6875
106.75
106.875
107.125
107.1875
107.0625
107.1875
107.4375
107.4375
107.125
107.0625
107.25
107.3125
107.1875
107.0
107.0
107.125
107.1875
107.125
107.1875
107.25
107.3125
107.125
106.875
106.875
107.0
107.0
106.9375
106.75
106.5625
106.5625
106.5625
106.4375
106.4375
106.4375
106.4375
106.375
106.4375
106.625
106.625
106.625
106.6875
106.875
106.9375
106.9375
106.9375
106.9375
107.0625
107.125
107.125
107.1875
107.375
107.5
107.3125
107.0625
107.0
107.0
107.0
106.9375
107.0625
107.1875
107.125
106.9375
106.9375
107.125
107.3125
107.25
107.1875
107.0625
107.0625
106.9375
106.8125
106.6875
106.875
106.9375
106.75
106.5625
106.5625
106.875
107.0
106.9375
106.8125
106.8125
106.9375
107.0625
106.9375
106.9375
107.0625
107.125
107.1875
107.1875
107.125
107.125
107.25
107.375
107.375
107.25
107.125
107.125
107.25
107.3125
107.1875
106.9375
106.9375
107.0625
107.125
107.1875
107.125
107.0
106.9375
106.75
106.625
106.625
106.8125
106.75
106.5625
106.5
106.6875
106.875
106.875
106.8125
106.75
106.9375
107.125
107.1875
107.1875
107.1875
107.25
107.3125
107.375
107.375
107.3125
107.3125
107.4375
107.5
107.5625
107.4375
107.4375
107.4375
107.5625
107.625
107.5
107.375
107.375
107.4375
107.5
107.375
107.3125
107.25
107.1875
107.1875
107.0625
107.0
107.0
107.0
106.9375
106.9375
107.125
107.25
107.3125
107.25
107.25
107.375
107.5
107.5625
107.5625
107.625
107.6875
107.6875
107.6875
107.75
107.6875
107.5625
107.625
107.75
107.75
107.625
107.625
107.9375
108.1875
108.0625
107.8125
107.6875
107.75
107.9375
107.9375
107.75
107.4375
107.4375
107.4375
107.3125
107.25
107.3125
107.4375
107.375
107.375
107.375
107.25
107.1875
107.1875
107.4375
107.5625
107.6875
107.75
107.8125
107.8125
107.8125
107.9375
108.0625
108.125
108.125
108.0625
108.0625
108.0625
108.0
108.0
108.0
108.0625
108.0625
108.0625
108.0
108.0
108.125
108.25
108.1875
108.125
108.125
108.1875
108.125
108.0
107.9375
107.9375
107.9375
107.9375
107.8125
107.75
107.75
107.75
107.6875
107.6875
107.625
107.625
107.5625
107.4375
107.4375
107.4375
107.375
107.3125
107.25
107.125
107.0625
107.0625
107.0625
106.9375
106.8125
106.6875
106.6875
106.6875
106.6875
106.5625
106.4375
106.4375
106.4375
106.3125
106.0625
106.0
106.125
106.1875
106.125
106.0625
106.1875
106.375
106.375
106.375
106.4375
106.5
106.5625
106.625
106.75
106.8125
106.75
106.75
106.875
106.9375
106.9375
106.875
106.9375
107.0625
107.125
107.0
107.0
107.0625
107.1875
107.1875
107.0625
107.0
107.0625
107.1875
107.0625
106.9375
106.8125
106.8125
106.8125
106.6875
106.625
106.625
106.625
106.625
106.5625
106.6875
106.8125
106.875
106.8125
106.8125
106.9375
107.0625
107.0625
107.125
107.125
107.1875
107.1875
107.1875
107.1875
107.1875
107.25
107.3125
107.3125
107.3125
107.25
107.25
107.25
107.25
107.25
107.25
107.125
107.0
107.0
107.125
107.1875
107.0625
107.0
107.0
107.0
106.875
106.6875
106.6875
106.6875
106.625
106.625
106.625
106.6875
106.875
106.9375
107.0625
107.0625
107.125
107.125
107.125
107.1875
107.25
107.25
107.25
107.25
107.25
107.25
107.375
107.4375
107.375
107.375
107.375
107.4375
107.4375
107.3125
107.25
107.25
107.25
107.1875
107.125
107.1875
107.125
107.0625
107.0
107.0
106.875
106.875
106.875
106.8125
106.6875
106.625
106.8125
107.0
107.0625
106.9375
106.9375
107.0625
107.1875
107.25
107.3125
107.3125
107.25
107.25
107.3125
107.3125
107.3125
107.4375
107.5625
107.625
107.5
107.375
107.4375
107.625
107.75
107.5625
107.25
107.1875
107.375
107.4375
107.375
107.375
107.5
107.625
107.625
107.625
107.625
107.6875
107.6875
107.625
107.6875
107.6875
107.625
107.5
107.5625
107.75
107.75
107.625
107.5625
107.5625
107.625
107.625
107.5625
107.5
107.5
107.4375
107.375
107.3125
107.25
107.1875
107.1875
107.125
107.0625
107.0625
107.0625
107.0625
107.125
107.1875
107.3125
107.1875
107.0
107.0625
107.125
107.0
106.875
106.75
106.75
106.75
106.6875
106.6875
106.6875
106.6875
106.625
106.5
106.5
106.4375
106.375
106.3125
106.25
106.25
106.1875
105.9375
105.875
106.0
106.0
105.8125
105.6875
105.625
105.5625
105.5625
105.5
105.3125
105.25
105.25
105.1875
105.125
105.0625
105.0
104.8125
104.8125
104.8125
104.75
104.5625
104.5625
104.6875
104.8125
104.875
104.875
104.9375
105.0625
105.125
105.1875
105.25
105.3125
105.3125
105.25
105.3125
105.4375
105.4375
105.4375
105.4375
105.4375
105.5625
105.5625
105.4375
105.5
105.6875
105.75
105.5625
105.375
105.375
105.375
105.375
105.25
105.25
105.25
105.1875
105.0
105.0
105.125
105.0625
104.9375
104.9375
105.0
104.875
104.6875
104.6875
105.0
105.1875
105.125
105.0
104.9375
105.125
105.25
105.3125
105.375
105.4375
105.375
105.375
105.375
105.4375
105.4375
105.4375
105.5
105.5
105.5
105.4375
105.4375
105.5
105.625
105.5625
105.4375
105.3125
105.3125
105.3125
105.375
105.3125
105.1875
105.125
105.0625
104.9375
104.875
104.875
105.0
104.875
104.75
104.875
105.0
105.125
105.125
105.0625
105.25
105.375
105.4375
105.375
105.375
105.5625
105.625
105.5625
105.5625
105.5625
105.5625
105.5
105.625
105.75
105.6875
105.625
105.6875
105.8125
105.9375
105.875
105.6875
105.5625
105.6875
105.6875
105.625
105.5625
105.5
105.5
105.4375
105.25
105.1875
105.375
105.375
105.1875
105.0625
105.3125
105.625
105.5625
105.375
105.4375
105.625
105.8125
105.6875
105.6875
105.8125
105.9375
105.8125
105.75
105.9375
106.0625
105.875
105.875
105.9375
106.0625
106.0625
106.0625
106.0625
106.1875
106.25
106.0
105.8125
105.8125
106.0
106.0
105.875
105.75
105.75
105.8125
105.75
105.5625
105.4375
105.5625
105.6875
105.5
105.25
105.375
105.75
105.75
105.5625
105.625
105.875
106.0
106.0
105.9375
105.9375
106.0625
106.1875
106.125
106.0625
106.0625
106.125
106.1875
106.1875
106.25
106.25
106.25
106.3125
106.3125
106.1875
106.0625
106.0
106.0625
106.1875
106.25
106.125
105.9375
105.9375
106.0
105.875
105.75
105.6875
105.8125
105.875
105.6875
105.5625
105.75
105.9375
106.0
105.9375
105.9375
106.0625
106.1875
106.25
106.1875
106.25
106.4375
106.5
106.5
106.4375
106.4375
106.4375
106.5
106.625
106.625
106.5625
106.5625
106.625
106.75
106.6875
106.5625
106.5
106.5
106.5625
106.5625
106.4375
106.375
106.375
106.375
106.3125
106.125
106.125
106.1875
106.1875
106.1875
106.1875
106.4375
106.625
106.5625
106.375
106.4375
106.6875
106.875
106.8125
106.75
106.8125
106.875
106.9375
107.0
107.0
107.0
107.125
107.125
107.0625
107.0625
107.125
107.1875
107.25
107.3125
107.25
107.1875
107.0625
107.0625
107.0625
107.1875
107.25
107.125
106.9375
106.9375
106.9375
106.8125
106.75
106.75
106.8125
106.8125
106.75
106.875
107.0
107.125
107.125
107.125
107.1875
107.375
107.5
107.4375
107.375
107.4375
107.5625
107.5
107.5
107.5
107.625
107.75
107.6875
107.5625
107.625
107.75
107.75
107.625
107.625
107.625
107.5625
107.5
107.4375
107.5625
107.6875
107.5625
107.3125
107.25
107.3125
107.25
107.1875
107.1875
107.0625
107.0
107.0625
107.1875
107.3125
107.4375
107.4375
107.5
107.625
107.75
107.75
107.5625
107.5625
107.75
107.9375
107.875
107.6875
107.6875
107.875
108.0
108.0
107.9375
107.9375
107.9375
107.9375
107.8125
107.75
107.75
107.75
107.75
107.75
107.75
107.625
107.5625
107.5625
107.5625
107.4375
107.375
107.4375
107.5
107.3125
107.1875
107.375
107.625
107.6875
107.5625
107.5625
107.625
107.75
107.9375
108.0
107.9375
108.0
108.0
108.0625
108.1875
108.125
108.125
108.125
108.1875
108.25
108.125
108.125
108.1875
108.3125
108.3125
108.1875
108.1875
108.125
108.125
108.1875
108.125
108.0625
108.0
107.875
107.6875
107.625
107.6875
107.75
107.75
107.6875
107.625
107.75
107.9375
108.0
108.0
108.0
108.125
108.25
108.25
108.3125
108.375
108.375
108.4375
108.5
108.5625
108.5625
108.4375
108.5
108.625
108.75
108.6875
108.625
108.625
108.75
108.875
108.6875
108.625
108.625
108.6875
108.6875
108.625
108.5625
108.5
108.4375
108.375
108.375
108.3125
108.3125
108.25
108.1875
108.25
108.375
108.4375
108.5
108.5625
108.5625
108.625
108.6875
108.8125
108.9375
109.0
108.875
108.8125
108.875
109.0
108.9375
108.875
109.0
109.125
109.0
108.8125
108.9375
109.1875
109.375
109.25
108.9375
108.8125
108.875
109.0
108.875
108.8125
108.8125
108.75
108.5625
108.4375
108.5
108.625
108.625
108.5625
108.4375
108.1875
108.1875
108.4375
108.75
108.6875
108.5
108.5625
108.75
108.875
108.875
108.9375
109.0625
109.1875
109.0625
108.9375
108.875
108.875
109.0625
109.1875
109.1875
109.0625
109.0625
109.1875
109.25
109.1875
109.0625
109.0625
109.1875
109.0625
108.9375
108.8125
108.75
108.9375
109.0625
109.0625
108.875
108.75
108.75
108.75
108.6875
108.5625
108.5625
108.5625
108.4375
108.3125
108.25
108.3125
108.4375
108.3125
108.125
108.0
108.0
107.875
107.75
107.6875
107.75
107.75
107.625
107.375
107.25
107.3125
107.375
107.3125
107.125
106.9375
106.875
106.875
106.8125
106.8125
106.75
106.6875
106.625
106.5625
106.4375
106.25
106.0
106.0
106.125
106.1875
106.0625
105.8125
105.875
106.125
106.25
106.25
106.1875
106.25
106.3125
106.375
106.4375
106.5625
106.625
106.625
106.75
106.8125
106.8125
106.75
106.75
106.8125
106.875
106.875
106.8125
106.8125
106.875
107.0
106.9375
106.9375
106.875
106.75
106.6875
106.75
106.875
106.8125
106.625
106.5
106.5
106.5
106.3125
106.1875
106.25
106.375
106.3125
106.25
106.3125
106.4375
106.5
106.5
106.5
106.5
106.5625
106.5625
106.6875
106.8125
106.75
106.75
106.75
106.75
106.8125
106.8125
106.8125
106.75
106.6875
106.6875
106.75
106.75
106.75
106.625
106.5
106.4375
106.5
106.5
106.4375
106.3125
106.3125
106.375
106.25
106.0
105.875
106.0625
106.1875
106.0
105.75
105.875
106.125
106.1875
106.0
106.0
106.1875
106.3125
106.25
106.1875
106.3125
106.5
106.5
106.4375
106.375
106.375
106.4375
106.4375
106.5
106.5625
106.5
106.4375
106.5
106.625
106.6875
106.375
106.1875
106.3125
106.4375
106.4375
106.25
106.25
106.1875
106.125
106.0625
106.0
105.9375
105.9375
105.875
105.75
105.6875
105.9375
106.1875
106.125
105.9375
106.0
106.1875
106.3125
106.375
106.375
106.4375
106.5
106.5
106.5
106.5625
106.625
106.5625
106.5625
106.625
106.625
106.5
106.5
106.6875
106.875
106.8125
106.625
106.5625
106.5625
106.625
106.625
106.5625
106.4375
106.375
106.3125
106.25
106.1875
106.1875
106.3125
106.1875
106.0625
106.125
106.25
106.375
106.4375
106.4375
106.5
106.5625
106.625
106.625
106.625
106.8125
106.875
106.875
106.875
106.9375
106.9375
106.875
106.9375
107.0625
107.125
107.0625
107.0
107.0
107.0625
107.125
107.0625
106.9375
106.9375
107.0
107.0
107.0
106.9375
106.875
106.75
106.625
106.625
106.75
106.6875
106.5625
106.4375
106.5
106.625
106.75
106.8125
106.875
106.875
107.0
107.0625
107.0625
107.1875
107.25
107.125
107.0625
107.1875
107.3125
107.25
107.1875
107.25
107.375
107.3125
107.25
107.25
107.4375
107.5
107.375
107.125
107.0625
107.1875
107.3125
107.25
107.125
107.0625
107.0
106.9375
106.875
106.875
106.875
106.9375
106.8125
106.625
106.625
106.875
107.0
107.0
107.0
107.0625
107.125
107.1875
107.25
107.3125
107.3125
107.375
107.4375
107.5
107.5625
107.375
107.375
107.5
107.625
107.5625
107.5
107.5
107.5625
107.6875
107.5625
107.4375
107.4375
107.5
107.5
107.4375
107.4375
107.375
107.3125
107.25
107.125
107.0
107.125
107.25
107.125
106.9375
107.0
107.25
107.5
107.375
107.25
107.375
107.5
107.625
107.6875
107.6875
107.75
107.875
107.875
107.9375
107.875
107.875
107.9375
108.0
108.125
108.0
107.9375
108.0
108.125
108.1875
108.0625
107.875
107.875
107.9375
108.0625
108.0
108.0
107.9375
107.8125
107.625
107.625
107.625
107.6875
107.625
107.5625
107.5625
107.75
107.9375
108.0
108.0
108.0
108.0625
108.1875
108.25
108.3125
108.3125
108.375
108.375
108.375
108.4375
108.4375
108.4375
108.5
108.625
108.5625
108.5625
108.5625
108.625
108.6875
108.625
108.5625
108.5
108.5
108.5625
108.5625
108.5
108.375
108.1875
108.1875
108.25
108.25
108.0625
108.0
108.0
108.125
108.125
108.125
108.125
108.3125
108.4375
108.375
108.375
108.5
108.5
108.6875
108.625
108.5625
108.5625
108.6875
108.75
108.6875
108.75
108.8125
108.8125
108.75
108.75
108.875
108.9375
108.9375
108.75
108.625
108.75
108.875
108.75
108.5625
108.4375
108.5
108.625
108.6875
108.5
108.4375
108.5
108.4375
108.3125
108.25
108.25
108.1875
108.0625
108.0
108.0
107.9375
107.875
107.875
107.8125
107.6875
107.625
107.5625
107.4375
107.4375
107.4375
107.3125
107.1875
107.125
107.0625
107.0625
107.0625
106.9375
106.8125
106.8125
106.6875
106.5625
106.4375
106.5
106.4375
106.3125
106.1875
106.1875
106.0625
105.875
105.8125
105.875
106.0
105.875
105.625
105.5625
105.6875
105.875
105.9375
105.875
105.9375
106.0625
106.1875
106.125
106.125
106.25
106.375
106.4375
106.4375
106.4375
106.5
106.5
106.5
106.5625
106.6875
106.625
106.5
106.5
106.625
106.6875
106.6875
106.625
106.5625
106.5
106.5
106.5
106.5
106.4375
106.4375
106.375
106.3125
106.3125
106.1875
106.0625
106.0
106.125
106.125
106.0
105.9375
106.125
106.3125
106.375
106.3125
106.3125
106.375
106.5
106.5625
106.5625
106.5625
106.6875
106.625
106.5625
106.5625
106.6875
106.75
106.6875
106.625
106.625
106.625
106.6875
106.6875
106.75
106.8125
106.6875
106.5
106.5
106.5625
106.5625
106.5625
106.4375
106.3125
106.25
106.1875
106.0625
106.0625
106.1875
106.0625
105.875
105.9375
106.1875
106.3125
106.25
106.1875
106.3125
106.375
106.4375
106.4375
106.4375
106.5
106.5
106.625
106.625
106.625
106.5625
106.5625
106.6875
106.75
106.625
106.5625
106.625
106.8125
106.75
106.5
106.5
106.625
106.5625
106.5
106.4375
106.375
106.3125
106.3125
106.25
106.0
106.0
106.125
106.125
105.9375
105.875
106.0625
106.25
106.3125
106.25
106.25
106.375
106.5
106.5625
106.5625
106.5
106.5625
106.625
106.6875
106.75
106.625
106.625
106.75
106.875
106.875
106.6875
106.6875
106.9375
107.0
106.875
106.8125
106.8125
106.75
106.6875
106.625
106.5625
106.5
106.5625
106.5
106.3125
106.25
106.375
106.4375
106.3125
106.3125
106.5625
106.75
106.6875
106.6875
106.75
106.875
106.9375
106.9375
106.9375
107.0
107.0625
107.0625
107.0625
107.1875
107.1875
107.0625
107.125
107.3125
107.375
107.25
107.25
107.25
107.4375
107.4375
107.3125
107.125
107.1875
107.1875
107.1875
107.125
107.125
107.0625
107.0625
107.0
106.9375
106.9375
106.875
106.75
106.6875
106.8125
107.0
107.125
107.125
107.1875
107.25
107.3125
107.375
107.375
107.4375
107.5
107.625
107.5625
107.625
107.625
107.6875
107.75
107.8125
107.9375
107.8125
107.625
107.6875
107.8125
107.875
107.8125
107.8125
107.75
107.625
107.6875
107.75
107.6875
107.625
107.625
107.5625
107.4375
107.4375
107.5
107.625
107.75
107.75
107.75
107.8125
107.9375
107.9375
107.9375
108.0625
108.125
108.125
108.1875
108.0625
107.9375
107.9375
108.0625
108.0625
108.0
108.0
108.0625
108.0625
108.125
108.0625
108.0
108.0
107.875
107.6875
107.6875
107.8125
107.8125
107.6875
107.6875
107.625
107.5625
107.5
107.375
107.25
107.25
107.375
107.3125
107.1875
107.25
107.375
107.5
107.5625
107.5625
107.5625
107.6875
107.875
107.9375
107.9375
108.0
108.0
108.0625
108.1875
108.1875
108.1875
108.1875
108.1875
108.25
108.375
108.25
108.25
108.3125
108.5
108.375
108.125
108.0625
108.1875
108.25
108.1875
108.1875
108.1875
108.125
108.0625
108.0
108.0
108.0
108.0625
107.9375
107.75
107.75
108.0
108.1875
108.1875
108.1875
108.25
108.3125
108.3125
108.3125
108.5
108.625
108.6875
108.6875
108.625
108.625
108.6875
108.6875
108.75
108.8125
108.875
108.75
108.75
108.8125
109.0
109.0625
108.875
108.75
108.75
108.75
108.75
108.75
108.6875
108.6875
108.6875
108.5
108.3125
108.3125
108.5
108.5
108.3125
108.4375
108.625
108.75
108.75
108.6875
108.6875
108.8125
108.9375
108.9375
108.9375
109.0625
109.125
109.125
109.1875
109.3125
109.25
109.1875
109.125
109.25
109.3125
109.125
109.125
109.375
109.5
109.3125
109.0625
109.0625
109.25
109.25
109.125
109.125
109.3125
109.5
109.375
109.25
109.1875
109.4375
109.5625
109.3125
109.0625
109.0625
109.1875
109.25
109.1875
109.125
109.1875
109.125
109.0
108.9375
108.9375
108.875
108.75
108.6875
108.6875
108.6875
108.625
108.5
108.5
108.5625
108.4375
108.1875
108.125
108.25
108.1875
108.0
107.875
107.9375
107.875
107.75
107.5625
107.5
107.625
107.625
107.4375
107.4375
107.6875
107.875
107.8125
107.75
107.875
107.9375
108.0625
108.125
108.1875
108.3125
108.4375
108.5
108.4375
108.375
108.4375
108.5
108.5
108.4375
108.4375
108.375
108.375
108.5625
108.6875
108.5625
108.4375
108.4375
108.4375
108.5
108.4375
108.375
108.3125
108.375
108.3125
108.1875
108.0625
108.0625
108.125
108.125
108.0625
108.0625
108.125
108.25
108.3125
108.375
108.375
108.5625
108.625
108.5625
108.5625
108.75
108.75
108.6875
108.6875
108.75
108.8125
108.8125
108.8125
108.9375
108.875
108.8125
108.75
108.875
109.0
109.0
108.8125
108.6875
108.75
108.75
108.6875
108.6875
108.6875
108.625
108.375
108.25
108.3125
108.4375
108.5
108.4375
108.375
108.375
108.375
108.375
108.1875
108.0
108.0
108.0
107.9375
107.75
107.75
107.75
107.8125
107.8125
107.625
107.4375
107.3125
107.3125
107.375
107.25
107.1875
107.125
107.0
106.9375
106.875
106.75
106.6875
106.5625
106.5625
106.5
106.4375
106.375
106.25
106.125
106.0625
106.125
106.0
105.75
105.625
105.625
105.6875
105.5
105.5
105.5625
105.6875
105.75
105.75
105.8125
105.875
105.875
105.875
105.9375
106.0625
106.1875
106.1875
106.1875
106.1875
106.25
106.1875
106.25
106.3125
106.375
106.3125
106.25
106.3125
106.4375
106.375
106.25
106.1875
106.25
106.25
106.1875
106.1875
106.25
106.125
106.0
105.9375
105.875
105.8125
105.9375
105.9375
105.75
105.75
106.0
106.125
106.0625
106.0625
106.0625
106.25
106.3125
106.3125
106.3125
106.375
106.375
106.4375
106.5625
106.4375
106.375
106.375
106.375
106.5
106.625
106.5
106.4375
106.4375
106.6875
106.625
106.4375
106.3125
106.375
106.375
106.4375
106.3125
106.1875
106.1875
106.0625
105.9375
105.875
105.9375
106.0625
105.9375
105.875
105.9375
106.125
106.25
106.1875
106.1875
106.25
106.375
106.5
106.5
106.5
106.5625
106.6875
106.75
106.75
106.75
106.75
106.75
106.8125
106.875
106.8125
106.75
106.8125
107.0
107.0625
106.9375
106.75
106.75
106.8125
106.9375
106.8125
106.8125
106.75
106.625
106.625
106.5625
106.5
106.4375
106.5
106.4375
106.3125
106.375
106.625
106.75
106.75
106.8125
106.8125
106.8125
106.875
106.875
106.875
107.0625
107.125
107.0625
107.0625
107.125
107.1875
107.1875
107.25
107.3125
107.25
107.25
107.25
107.375
107.375
107.1875
107.0625
107.1875
107.3125
107.1875
107.0
107.0
107.0
107.125
107.0625
106.875
106.625
106.75
106.9375
106.8125
106.625
106.6875
106.9375
107.0625
106.9375
106.875
107.0
107.125
107.25
107.1875
107.1875
107.3125
107.25
107.3125
107.4375
107.5
107.375
107.375
107.5
107.625
107.5
107.375
107.5
107.625
107.5625
107.375
107.375
107.5
107.4375
107.375
107.375
107.3125
107.25
107.125
106.9375
106.875
107.0625
107.1875
107.0625
106.8125
106.875
107.25
107.375
107.25
107.1875
107.3125
107.4375
107.5625
107.4375
107.0625
106.5625
107.3125
107.4375
105.3125
105.6875
109.125
110.8125
109.1875
107.4375
107.6875
108.1875
107.625
107.25
107.3125
107.4375
107.9375
108.5625
108.0
107.4375
108.125
109.1875
108.75
107.5625
107.375
107.5
107.375
107.25
107.5
107.5625
107.5
107.6875
108.0625
108.125
107.9375
107.9375
108.0
108.125
108.0625
108.0625
108.1875
108.3125
108.1875
108.1875
108.25
108.25
108.1875
108.25
108.3125
108.375
108.4375
108.375
108.4375
108.625
108.6875
108.5
108.25
108.375
108.5
108.5
108.375
108.3125
108.3125
108.3125
108.25
108.125
108.125
108.25
108.1875
108.0625
108.125
108.375
108.5
108.375
108.375
108.5625
108.625
108.625
108.5625
108.625
108.75
108.625
108.625
108.75
108.875
108.875
108.8125
108.875
109.0
108.9375
108.8125
108.8125
108.9375
109.0625
108.9375
108.75
108.75
108.9375
109.0
108.875
108.75
108.8125
108.75
108.5625
108.5
108.5
108.5
108.5
108.4375
108.375
108.4375
108.5
108.6875
108.75
108.8125
108.75
108.75
108.875
108.9375
109.0
109.0
108.9375
109.0
109.1875
109.125
109.0625
109.0625
109.1875
109.25
109.125
109.0
109.0625
109.1875
109.125
109.0625
109.0
109.0625
109.0
109.0
109.0
109.0
108.875
108.75
108.6875
108.625
108.625
108.625
108.75
108.6875
108.5625
108.5
108.6875
108.9375
108.9375
108.8125
108.875
109.125
109.1875
109.125
109.125
109.25
109.375
109.375
109.3125
109.3125
109.3125
109.375
109.4375
109.5
109.4375
109.375
109.3125
109.5
109.75
109.5
109.1875
109.125
109.375
109.4375
109.3125
109.1875
109.1875
109.25
109.3125
109.1875
109.0625
109.0
109.0
108.875
108.875
108.875
108.8125
108.6875
108.625
108.625
108.5625
108.4375
108.375
108.375
108.3125
108.25
108.1875
108.0625
108.0625
108.0625
107.9375
107.75
107.75
107.75
107.625
107.375
107.375
107.5
107.375
107.125
107.0625
107.125
107.125
107.0625
106.875
106.75
106.75
106.6875
106.5625
106.375
106.3125
106.3125
106.3125
106.1875
106.1875
106.1875
106.3125
106.375
106.4375
106.5
106.5625
106.625
106.5625
106.6875
106.8125
106.875
106.9375
106.9375
107.0
107.0
107.0
107.0
107.0
107.0
106.9375
106.875
107.125
107.3125
107.3125
106.9375
106.75
106.9375
107.1875
107.1875
106.875
106.6875
106.75
106.875
106.875
106.8125
106.8125
106.75
106.5625
106.5
106.5625
106.5
106.375
106.3125
106.3125
106.3125
106.1875
106.0
105.9375
106.0
106.0
105.8125
105.625
105.625
105.625
105.5
105.4375
105.5
105.4375
105.1875
104.9375
105.0
105.0625
104.9375
104.75
104.625
104.6875
104.6875
104.4375
104.25
104.25
104.3125
104.25
104.0625
103.9375
104.125
104.3125
104.3125
104.3125
104.4375
104.5625
104.5625
104.5625
104.6875
104.75
104.8125
104.75
104.75
104.75
104.8125
104.8125
104.875
104.9375
105.0625
104.875
104.8125
104.9375
105.125
105.125
104.9375
104.8125
104.8125
104.9375
104.875
104.8125
104.75
104.6875
104.625
104.625
104.75
104.6875
104.5
104.375
104.375
104.4375
104.3125
104.125
104.0625
104.125
104.125
104.0
103.875
103.875
103.875
103.75
103.75
103.625
103.5
103.375
103.3125
103.25
103.3125
103.25
103.0625
102.875
102.875
102.875
102.8125
102.75
102.625
102.5625
102.4375
102.4375
102.4375
102.3125
102.1875
102.125
102.125
102.0625
101.9375
101.6875
101.6875
101.8125
101.75
101.5
101.4375
101.6875
101.875
101.8125
101.8125
101.8125
102.0
102.0625
102.0625
102.125
102.25
102.25
102.1875
102.25
102.375
102.4375
102.375
102.375
102.4375
102.4375
102.3125
102.3125
102.5625
102.625
102.3125
102.125
102.25
102.5
102.5
102.25
102.125
102.25
102.375
102.375
102.25
102.3125
102.3125
102.1875
102.0
102.0
102.0
101.9375
101.8125
101.75
101.75
101.8125
101.6875
101.625
101.5625
101.5
101.4375
101.4375
101.3125
101.1875
101.1875
101.1875
101.125
100.9375
100.75
100.6875
100.6875
100.8125
100.75
100.5
100.375
100.375
100.375
100.25
100.125
100.125
100.125
100.0625
100.0625
100.1875
100.25
100.25
100.3125
100.4375
100.5625
100.5625
100.5625
100.6875
100.75
100.875
100.8125
100.8125
100.8125
100.875
100.875
100.9375
101.0
100.9375
101.0
101.0
101.0625
101.1875
101.1875
101.0625
100.9375
101.125
101.25
101.125
100.875
100.875
100.875
100.9375
100.9375
100.875
100.75
100.6875
100.6875
100.6875
100.625
100.5625
100.5
100.4375
100.4375
100.375
100.3125
100.25
100.3125
100.1875
100.0625
100.0625
100.0625
100.0
99.875
99.8125
99.8125
99.8125
99.6875
99.5
99.4375
99.5
99.4375
99.25
99.125
99.125
99.1875
99.0625
98.875
98.8125
98.8125
98.8125
98.6875
98.5625
98.3125
98.25
98.25
98.3125
98.3125
98.1875
98.125
98.1875
98.4375
98.5625
98.5
98.4375
98.5
98.625
98.75
98.75
98.75
98.75
98.875
99.0
99.0
99.0
99.0625
99.125
99.125
99.0625
99.0625
99.125
99.125
99.1875
99.1875
99.125
99.0625
99.0
99.0
99.0625
99.1875
99.125
98.9375
98.875
98.9375
98.875
98.75
98.75
98.8125
98.75
98.6875
98.6875
98.9375
99.0625
99.0625
99.0625
99.125
99.3125
99.3125
99.1875
99.3125
99.5
99.5
99.4375
99.4375
99.4375
99.4375
99.625
99.6875
99.5625
99.5
99.5625
99.75
99.75
99.6875
99.625
99.625
99.5625
99.5625
99.5
99.5625
99.5
99.375
99.3125
99.25
99.25
99.25
99.3125
99.3125
99.25
99.3125
99.4375
99.5625
99.5625
99.5625
99.6875
99.8125
99.9375
99.9375
99.9375
99.9375
100.0625
100.1875
100.125
100.0625
100.1875
100.3125
100.375
100.375
100.375
100.3125
100.3125
100.5
100.5625
100.4375
100.4375
100.4375
100.4375
100.4375
100.5
100.4375
100.375
100.3125
100.3125
100.3125
100.3125
100.3125
100.3125
100.1875
100.1875
100.4375
100.625
100.5
100.375
100.5
100.75
100.875
100.875
100.875
101.0
101.125
101.125
101.125
101.125
101.125
101.0625
101.0625
101.1875
101.3125
101.1875
101.1875
101.4375
101.625
101.4375
101.25
101.3125
101.4375
101.4375
101.25
101.125
101.1875
101.3125
101.3125
101.1875
101.1875
101.3125
101.3125
101.125
100.9375
101.0625
101.1875
101.0625
100.875
100.875
100.9375
100.875
100.75
100.6875
100.6875
100.6875
100.5625
100.5
100.5
100.4375
100.375
100.25
100.25
100.3125
100.25
100.125
99.9375
99.875
99.9375
99.9375
99.8125
99.75
99.8125
99.75
99.5625
99.5
99.5
99.375
99.25
99.0625
99.125
99.25
99.1875
98.9375
98.8125
99.0
99.25
99.25
99.1875
99.1875
99.4375
99.5625
99.625
99.6875
99.6875
99.6875
99.75
99.8125
99.875
99.875
99.9375
99.875
100.0
100.1875
100.125
99.875
99.875
100.125
100.25
100.1875
100.0625
100.0625
100.1875
100.0625
100.0625
100.0625
100.0625
99.9375
99.8125
99.875
99.875
99.9375
99.8125
99.6875
99.6875
99.9375
100.1875
100.0625
100.0
100.125
100.3125
100.375
100.25
100.25
100.4375
100.5625
100.5625
100.5
100.625
100.75
100.6875
100.6875
100.75
100.875
100.8125
100.8125
100.75
100.8125
100.9375
100.875
100.875
100.8125
100.875
100.875
100.875
101.0
101.0625
101.0625
101.0
101.0
101.0625
101.0625
100.9375
100.8125
100.8125
100.875
100.875
100.8125
100.8125
100.8125
100.875
100.75
100.6875
100.625
100.625
100.5625
100.5
100.5
100.5
100.5
100.375
100.25
100.125
100.125
100.125
100.0
99.9375
99.9375
99.9375
99.8125
99.6875
99.6875
99.625
99.625
99.5625
99.5
99.375
99.3125
99.3125
99.25
99.125
99.0625
99.0625
99.0
98.875
98.9375
99.1875
99.3125
99.3125
99.3125
99.375
99.5
99.625
99.5625
99.5625
99.6875
99.75
99.6875
99.625
99.75
99.875
99.875
99.9375
100.0
99.875
99.875
99.9375
100.0625
100.0625
100.0625
99.9375
99.875
99.8125
99.875
99.9375
100.0
99.875
99.8125
99.8125
99.6875
99.625
99.6875
99.8125
99.625
99.5
99.6875
99.875
99.875
99.875
100.0
100.0
100.0
100.125
100.25
100.3125
100.25
100.1875
100.25
100.375
100.375
100.3125
100.3125
100.5
100.5625
100.5
100.5
100.5625
100.6875
100.625
100.5
100.4375
100.5625
100.6875
100.625
100.5
100.375
100.375
100.3125
100.3125
100.1875
100.25
100.3125
100.25
100.25
100.3125
100.4375
100.5625
100.6875
100.625
100.5625
100.625
100.875
101.0
101.0625
101.0625
101.125
101.125
101.1875
101.25
101.25
101.25
101.3125
101.375
101.375
101.3125
101.3125
101.4375
101.5625
101.5625
101.4375
101.375
101.4375
101.5
101.5
101.4375
101.4375
101.4375
101.3125
101.1875
101.125
101.1875
101.25
101.25
101.375
101.4375
101.5
101.5
101.5625
101.625
101.75
101.8125
101.875
101.9375
101.9375
102.0625
102.0
102.0
102.125
102.25
102.1875
102.1875
102.3125
102.375
102.3125
102.375
102.4375
102.4375
102.375
102.3125
102.25
102.3125
102.4375
102.4375
102.3125
102.3125
102.3125
102.125
101.9375
102.0
102.125
102.125
102.125
102.0625
102.0625
102.1875
102.375
102.4375
102.375
102.4375
102.5625
102.5
102.5625
102.8125
102.9375
102.8125
102.6875
102.9375
103.0625
102.875
102.8125
102.875
103.0625
103.1875
103.125
103.0625
103.125
103.25
103.1875
103.0625
103.0625
103.125
103.125
103.0625
103.125
103.0625
103.0
103.0
102.9375
102.875
102.9375
103.0
102.875
102.875
102.875
102.9375
103.125
103.1875
103.1875
103.3125
103.375
103.4375
103.5625
103.625
103.625
103.625
103.625
103.75
103.875
103.75
103.75
104.0
104.0625
103.875
103.625
103.75
104.125
104.3125
104.125
103.875
103.875
104.125
104.1875
104.0625
104.0
104.125
104.25
104.25
104.1875
104.25
104.375
104.4375
104.4375
104.4375
104.375
104.3125
104.3125
104.4375
104.5625
104.4375
104.3125
104.3125
104.4375
104.4375
104.3125
104.25
104.3125
104.3125
104.1875
104.125
104.125
104.1875
104.125
103.875
103.875
103.9375
103.9375
103.8125
103.6875
103.75
103.8125
103.6875
103.5
103.375
103.375
103.5
103.4375
103.375
103.375
103.5625
103.6875
103.75
103.8125
103.875
103.875
103.9375
104.0625
104.125
104.25
104.3125
104.3125
104.3125
104.4375
104.5625
104.5
104.5
104.5625
104.625
104.5625
104.5
104.625
104.75
104.6875
104.5625
104.625
104.75
104.625
104.5625
104.5625
104.6875
104.625
104.4375
104.375
104.4375
104.375
104.3125
104.25
104.3125
104.3125
104.1875
104.1875
104.3125
104.5625
104.6875
104.5625
104.5
104.6875
104.8125
104.875
104.875
104.875
104.9375
105.0
104.9375
105.0
105.0
105.0
105.0625
105.125
105.125
105.125
105.125
105.125
105.125
105.0625
105.0
105.0
105.0
105.0
105.0
104.9375
104.8125
104.6875
104.6875
104.625
104.5625
104.5
104.5625
104.5625
104.4375
104.4375
104.6875
104.875
104.875
104.875
104.875
104.9375
105.0625
105.1875
105.25
105.25
105.25
105.3125
105.3125
105.375
105.3125
105.375
105.4375
105.5625
105.625
105.5625
105.5
105.5625
105.6875
105.8125
105.6875
105.5
105.375
105.375
105.5
105.5
105.4375
105.375
105.3125
105.1875
105.125
105.25
105.25
105.125
105.0
105.1875
105.375
105.4375
105.3125
105.3125
105.5
105.625
105.6875
105.6875
105.75
105.8125
105.9375
106.0
106.0
105.9375
105.9375
106.0
106.1875
106.25
106.125
106.0
106.0625
106.25
106.375
106.1875
105.9375
106.0
106.125
106.0625
105.9375
105.9375
106.0625
105.9375
105.8125
105.75
105.6875
105.6875
105.6875
105.75
105.625
105.5625
105.6875
105.875
105.9375
106.0
106.0625
106.0625
106.0625
106.125
106.25
106.375
106.5
106.5625
106.4375
106.375
106.5
106.625
106.625
106.5625
106.5625
106.6875
106.6875
106.6875
106.6875
106.8125
106.75
106.5625
106.4375
106.4375
106.5
106.5625
106.5625
106.4375
106.25
106.1875
106.3125
106.3125
106.1875
106.125
106.125
106.125
106.125
106.1875
106.3125
106.3125
106.4375
106.4375
106.4375
106.4375
106.5625
106.6875
106.6875
106.6875
106.75
106.8125
106.6875
106.625
106.875
107.0
106.875
106.75
106.75
106.875
107.0
107.0
106.875
106.8125
106.8125
106.75
106.625
106.6875
106.8125
106.6875
106.5
106.5
106.5
106.375
106.1875
106.25
106.4375
106.375
106.125
106.0625
106.375
106.625
106.5625
106.5
106.5625
106.6875
106.8125
106.875
106.875
106.9375
107.0
107.0
107.0625
107.0
106.9375
107.0625
107.25
107.25
107.125
107.0625
107.1875
107.25
107.25
107.1875
107.125
107.0625
106.9375
106.9375
107.0
107.0625
107.0
106.875
106.6875
106.6875
106.75
106.625
106.5625
106.625
106.625
106.5625
106.6875
106.9375
107.0625
106.9375
106.8125
106.9375
107.125
107.1875
107.0625
107.1875
107.5
107.625
107.5
107.4375
107.4375
107.4375
107.5
107.5
107.5625
107.625
107.5625
107.5
107.625
107.75
107.625
107.375
107.3125
107.5
107.625
107.5
107.25
107.25
107.375
107.1875
107.0
107.0
107.0625
107.125
107.1875
107.1875
107.25
107.375
107.375
107.3125
107.4375
107.625
107.6875
107.5625
107.625
107.8125
107.875
107.8125
107.75
107.8125
107.9375
107.9375
107.8125
107.75
107.8125
107.875
108.0
107.9375
107.875
107.8125
107.8125
107.75
107.6875
107.6875
107.625
107.5625
107.5
107.375
107.3125
107.1875
107.125
107.1875
107.3125
107.25
107.0
107.0625
107.375
107.5625
107.4375
107.3125
107.3125
107.5
107.6875
107.75
107.6875
107.8125
107.8125
107.75
107.75
107.8125
107.8125
107.875
107.875
107.9375
108.0
108.0625
108.0625
108.0625
108.0
107.875
107.8125
107.8125
107.75
107.625
107.5625
107.625
107.75
107.75
107.4375
107.25
107.3125
107.375
107.375
107.3125
107.1875
107.0625
107.125
107.3125
107.4375
107.4375
107.5
107.5625
107.5625
107.5625
107.6875
107.75
107.75
107.875
107.9375
108.0
107.9375
107.875
107.9375
108.125
108.125
108.0
107.9375
107.9375
108.0625
108.1875
108.125
108.0625
107.9375
107.75
107.8125
107.9375
108.0
107.875
107.625
107.5625
107.6875
107.6875
107.4375
107.3125
107.375
107.5
107.4375
107.375
107.5625
107.75
107.6875
107.625
107.75
107.875
107.9375
107.875
108.0625
108.25
108.25
108.0625
108.0
108.125
108.3125
108.3125
108.25
108.3125
108.375
108.375
108.3125
108.375
108.375
108.3125
108.25
108.1875
108.1875
108.0625
108.125
108.125
108.1875
108.0625
107.8125
107.75
107.75
107.8125
107.875
107.75
107.5
107.375
107.625
107.875
107.875
107.8125
107.875
108.0
108.0625
108.125
108.1875
108.25
108.4375
108.5
108.25
108.25
108.375
108.5
108.4375
108.375
108.5
108.4375
108.375
108.375
108.5625
108.75
108.625
108.375
108.3125
108.5
108.5625
108.4375
108.3125
108.125
108.0625
108.0625
108.0625
108.0625
108.0
108.0
107.875
107.8125
107.875
108.0
108.0625
108.0625
108.0
107.9375
108.125
108.3125
108.4375
108.5
108.4375
108.375
108.375
108.375
108.5
108.5625
108.5
108.5
108.4375
108.4375
108.5
108.5625
108.625
108.5625
108.4375
108.375
108.375
108.3125
108.1875
108.1875
108.1875
108.25
108.125
108.0
108.0
107.9375
107.8125
107.8125
107.875
107.6875
107.5625
107.6875
107.9375
108.0
107.875
107.8125
107.9375
108.125
108.3125
108.25
108.25
108.3125
108.375
108.5
108.4375
108.375
108.3125
108.3125
108.4375
108.5
108.5
108.4375
108.5
108.5625
108.5625
108.4375
108.3125
108.25
108.25
108.375
108.3125
108.1875
108.125
108.0
107.875
107.875
107.875
107.6875
107.6875
107.8125
107.9375
107.9375
108.125
108.25
108.0625
108.0625
108.25
108.375
108.3125
108.3125
108.4375
108.5
108.625
108.625
108.5625
108.5625
108.625
108.75
108.6875
108.5625
108.5625
108.625
108.875
108.9375
108.75
108.5
108.4375
108.5625
108.625
108.5
108.5
108.5
108.375
108.25
108.125
108.125
108.125
108.125
108.0625
108.125
108.3125
108.4375
108.3125
108.3125
108.4375
108.625
108.5625
108.5
108.6875
108.8125
108.8125
108.75
108.8125
109.0
108.9375
108.8125
108.75
109.0
109.1875
109.0
108.8125
108.9375
109.0625
109.0625
108.875
108.8125
108.8125
108.75
108.75
108.6875
108.75
108.75
108.625
108.375
108.4375
108.4375
108.1875
108.0625
108.0625
108.1875
108.1875
108.125
108.3125
108.5
108.4375
108.375
108.4375
108.5625
108.625
108.6875
108.75
108.875
108.9375
108.875
108.8125
108.8125
108.8125
109.0
108.9375
108.875
108.9375
108.9375
108.875
108.875
109.0
109.0
108.8125
108.6875
108.625
108.75
108.75
108.625
108.5625
108.5625
108.5
108.125
108.0625
108.375
108.5625
108.25
107.9375
108.1875
108.625
108.75
108.375
108.25
108.5625
108.8125
108.8125
108.6875
108.6875
108.8125
108.9375
109.0
108.875
108.8125
108.8125
108.875
109.0625
109.0625
108.875
108.75
108.8125
109.0
109.0625
108.9375
108.6875
108.6875
108.8125
108.8125
108.625
108.375
108.375
108.4375
108.375
108.25
108.3125
108.375
108.1875
108.0625
108.375
108.625
108.5625
108.3125
108.375
108.6875
108.9375
109.0
108.8125
108.8125
109.0625
109.1875
109.0625
109.0
109.0625
109.125
109.125
109.0625
109.0
109.0625
109.1875
109.375
109.25
109.1875
109.125
109.125
109.1875
109.1875
109.25
109.25
109.25
109.25
109.25
109.3125
109.3125
109.1875
109.1875
109.25
109.1875
109.0
108.9375
109.0
109.0625
109.0625
109.0
108.9375
108.8125
108.6875
108.5625
108.5
108.625
108.6875
108.5
108.375
108.4375
108.5
108.3125
108.0625
107.9375
108.0
108.0625
107.875
107.6875
107.75
107.75
107.5625
107.4375
107.375
107.4375
107.5
107.1875
106.9375
106.9375
107.25
107.5
107.4375
107.375
107.375
107.5
107.6875
107.75
107.875
107.9375
108.0
107.875
107.8125
108.0
108.125
108.125
108.0625
108.0625
108.1875
108.125
108.125
108.1875
108.25
108.25
108.1875
108.125
108.0625
107.9375
108.0
108.1875
108.125
107.875
107.625
107.5625
107.5625
107.6875
107.75
107.6875
107.5
107.4375
107.625
107.8125
107.8125
107.6875
107.6875
107.9375
108.125
108.0625
108.0625
108.0625
108.0625
108.125
108.0625
107.9375
107.875
107.875
108.0
108.125
108.125
108.0625
108.0
108.0
108.0625
107.9375
107.8125
107.6875
107.625
107.6875
107.75
107.6875
107.5625
107.4375
107.25
107.125
107.125
107.1875
107.3125
107.125
107.0
107.0625
107.375
107.5
107.5
107.375
107.4375
107.625
107.8125
107.8125
107.75
107.8125
107.9375
108.0625
108.0625
107.9375
107.9375
108.0625
108.1875
108.125
108.0
108.0
108.25
108.375
108.3125
108.125
108.0
108.125
108.125
108.0
108.0
108.0
107.875
107.75
107.625
107.625
107.625
107.6875
107.625
107.5625
107.5625
107.75
107.9375
108.0
107.875
107.8125
107.875
108.125
108.1875
108.25
108.3125
108.375
108.4375
108.4375
108.4375
108.4375
108.4375
108.5
108.5
108.4375
108.4375
108.5
108.625
108.625
108.5625
108.4375
108.375
108.375
108.375
108.25
108.125
108.1875
108.25
108.1875
108.0625
107.875
107.875
107.875
108.0
107.875
107.75
107.8125
107.9375
108.0625
108.0625
108.0625
108.0625
108.25
108.375
108.3125
108.3125
108.4375
108.5625
108.625
108.6875
108.75
108.625
108.625
108.6875
108.6875
108.6875
108.625
108.625
108.625
108.75
108.8125
108.6875
108.5625
108.5625
108.5
108.4375
108.4375
108.375
108.25
108.1875
108.125
108.125
108.1875
108.1875
108.0625
108.0
108.125
108.1875
108.125
108.25
108.4375
108.5
108.5
108.5
108.5625
108.6875
108.625
108.625
108.75
108.8125
108.6875
108.5625
108.6875
108.9375
108.9375
108.6875
108.625
108.75
108.875
108.8125
108.625
108.5625
108.5625
108.5
108.5
108.5
108.375
108.3125
108.3125
108.3125
108.1875
108.125
108.1875
108.25
108.1875
108.1875
108.25
108.375
108.4375
108.5
108.5
108.5625
108.625
108.8125
108.9375
108.9375
108.9375
109.0
109.0
108.9375
108.875
108.9375
109.0625
109.0625
109.0
109.0
109.125
109.25
109.3125
109.1875
109.0
109.0625
109.125
109.125
109.0625
108.9375
108.75
108.6875
108.75
108.6875
108.5625
108.625
108.625
108.625
108.625
108.75
108.8125
108.9375
109.0
108.9375
108.9375
109.0
109.1875
109.3125
109.3125
109.375
109.4375
109.5
109.5
109.5625
109.5625
109.5625
109.5625
109.625
109.5625
109.4375
109.4375
109.5625
109.6875
109.5
109.3125
109.3125
109.5
109.5625
109.5
109.375
109.25
109.1875
109.125
109.0
109.0
109.0
108.9375
108.75
108.75
109.0
109.25
109.25
109.1875
109.1875
109.375
109.5
109.5
109.5
109.5625
109.5625
109.5
109.5625
109.625
109.6875
109.75
109.8125
109.8125
109.6875
109.625
109.6875
109.75
109.5625
109.4375
109.625
109.75
109.6875
109.5625
109.625
109.75
109.8125
109.8125
109.6875
109.4375
109.4375
109.625
109.6875
109.5
109.3125
109.375
109.4375
109.4375
109.25
109.125
109.0625
109.125
109.25
109.125
108.8125
108.625
108.6875
108.75
108.6875
108.625
108.5625
108.5
108.4375
108.3125
108.1875
108.25
108.25
108.125
108.0625
108.0
107.9375
107.875
107.875
107.75
107.5625
107.4375
107.4375
107.5
107.5625
107.5625
107.5
107.5
107.6875
107.75
107.75
107.8125
107.875
108.0
108.125
108.1875
108.25
108.4375
108.6875
108.8125
108.75
108.625
108.5625
108.5625
108.5625
108.5625
108.5625
108.5625
108.5625
108.5
108.375
108.3125
108.3125
108.4375
108.4375
108.375
108.1875
108.125
108.125
108.1875
108.25
108.375
108.3125
108.0
107.875
108.0625
108.4375
108.5
108.375
108.25
108.3125
108.5
108.5625
108.4375
108.4375
108.625
108.6875
108.625
108.625
108.75
108.875
108.9375
108.875
108.875
108.875
108.75
108.75
108.875
109.0
108.875
108.5625
108.5
108.6875
108.875
108.875
108.75
108.75
108.75
108.75
108.6875
108.6875
108.5625
108.5
108.5
108.5625
108.4375
108.375
108.3125
108.25
108.125
108.0
107.8125
107.8125
107.8125
107.6875
107.625
107.5625
107.4375
107.375
107.3125
107.125
107.0
106.875
106.8125
106.8125
106.8125
106.8125
106.75
106.625
106.4375
106.3125
106.3125
106.25
106.125
106.0
106.0625
106.1875
106.1875
105.8125
105.5
105.4375
105.5
105.6875
105.5
105.125
104.9375
105.25
105.8125
105.9375
105.5625
105.25
105.375
105.8125
106.0625
105.9375
105.6875
105.8125
106.0625
106.125
105.9375
105.8125
105.9375
106.3125
106.5
106.375
106.0625
105.9375
106.0625
106.25
106.1875
106.1875
106.25
106.1875
106.0625
106.0
106.0
105.9375
105.875
105.75
105.5625
105.375
105.375
105.375
105.25
105.25
105.375
105.5625
105.625
105.5625
105.5
105.5625
105.8125
106.0625
106.125
106.0625
106.0
105.875
105.875
105.875
106.0625
106.1875
106.1875
106.0625
106.0
106.0625
106.25
106.4375
106.4375
106.25
106.0
106.0625
106.3125
106.375
106.125
105.875
105.875
106.0625
106.0625
105.875
105.75
105.75
105.8125
105.875
105.9375
105.875
105.6875
105.4375
105.5
105.8125
106.0
105.75
105.5
105.625
106.0
106.3125
106.3125
106.25
106.3125
106.375
106.3125
106.25
106.25
106.375
106.5
106.5625
106.5625
106.625
106.5625
106.4375
106.5
106.625
106.625
106.5
106.4375
106.375
106.3125
106.3125
106.25
106.3125
106.1875
106.0
105.8125
105.9375
106.125
106.125
105.8125
105.625
105.8125
106.1875
106.25
106.0625
105.375
103.875
104.375
107.6875
108.4375
106.9375
107.0
107.0
106.0625
106.1875
106.9375
106.6875
106.0625
106.125
106.5
106.5
106.5
106.6875
106.875
106.875
106.8125
106.6875
106.375
106.3125
106.3125
106.1875
106.125
106.0
105.875
105.75
105.75
105.875
105.9375
105.625
105.875
106.5625
106.375
106.0625
106.1875
106.1875
105.875
106.0
106.125
106.1875
106.1875
106.25
106.375
106.4375
106.5
106.5
106.4375
106.4375
106.5
106.625
106.625
106.5
106.4375
106.5625
106.5
106.375
106.1875
106.25
106.375
106.3125
106.25
106.25
106.25
106.1875
106.0625
105.75
105.75
105.875
105.875
105.6875
105.625
105.875
106.0
106.0625
106.0
106.0
106.125
106.3125
106.375
106.4375
106.4375
106.4375
106.5
106.5625
106.6875
106.625
106.4375
106.4375
106.6875
106.8125
106.6875
106.6875
106.8125
106.875
106.8125
106.6875
106.6875
106.8125
106.8125
106.625
106.4375
106.4375
106.4375
106.375
106.25
106.125
106.125
106.1875
106.125
106.1875
106.375
106.5
106.5625
106.5625
106.625
106.8125
106.8125
106.8125
106.875
107.0
107.0
106.875
106.8125
106.875
107.0625
107.1875
107.125
107.125
107.25
107.1875
107.125
107.125
107.25
107.3125
107.1875
107.1875
107.25
107.3125
107.3125
107.375
107.25
107.0625
106.875
106.8125
106.8125
106.875
106.8125
106.625
106.5
106.5625
106.8125
107.0
107.0
106.9375
106.9375
107.0
107.125
107.1875
107.375
107.4375
107.5
107.5
107.4375
107.375
107.4375
107.4375
107.5
107.5
107.5
107.375
107.375
107.5
107.625
107.5625
107.4375
107.3125
107.1875
107.1875
107.3125
107.375
107.25
107.125
107.125
107.0625
106.9375
106.9375
107.0
106.875
106.6875
106.625
106.875
107.0625
107.0
106.875
107.0625
107.4375
107.5
107.25
107.1875
107.4375
107.625
107.5
107.3125
107.3125
107.375
107.5
107.5
107.5
107.5625
107.625
107.625
107.75
107.625
107.4375
107.3125
107.3125
107.5
107.4375
107.25
107.125
107.1875
107.25
107.1875
107.125
107.0625
107.125
107.1875
107.0625
106.875
106.8125
106.875
106.8125
106.6875
106.4375
106.3125
106.3125
106.4375
106.375
106.3125
106.3125
106.125
105.9375
105.9375
105.875
105.8125
105.5625
105.5
105.5625
105.5625
105.375
105.25
105.25
105.1875
105.1875
105.125
105.0
104.875
104.8125
104.75
104.6875
104.625
104.5
104.375
104.1875
104.1875
104.1875
104.125
104.125
104.3125
104.5
104.5
104.375
104.3125
104.5625
104.6875
104.8125
104.8125
104.875
104.875
105.0
105.0
105.0625
105.125
105.0625
105.0625
105.0625
105.125
105.1875
105.0625
105.125
105.375
105.4375
105.1875
104.9375
104.8125
104.9375
105.0625
105.0625
105.0
104.9375
104.75
104.625
104.75
104.875
104.8125
104.625
104.4375
104.25
104.3125
104.5
104.625
104.625
104.625
104.75
104.75
104.75
104.8125
105.0
105.125
105.0625
105.0
105.0
104.875
104.8125
104.8125
105.0
105.125
105.125
105.0
104.9375
104.9375
105.0625
105.125
105.0
104.6875
104.625
104.625
104.75
104.75
104.625
104.5
104.3125
104.25
104.3125
104.4375
104.375
104.1875
104.25
104.4375
104.5
104.4375
104.4375
104.4375
104.5625
104.625
104.75
104.75
104.6875
104.6875
104.875
104.9375
104.75
104.5625
104.625
104.8125
104.9375
104.8125
104.75
104.8125
104.9375
105.0
104.875
104.75
104.625
104.5625
104.5
104.375
104.3125
104.25
104.1875
104.1875
104.25
104.375
104.375
104.3125
104.375
104.4375
104.5625
104.5
104.5625
104.625
104.6875
104.8125
104.9375
104.875
104.8125
104.875
105.0625
105.1875
104.9375
104.75
104.875
105.125
105.25
105.125
105.0
105.0
105.1875
105.1875
105.0625
104.875
104.75
104.9375
105.1875
105.3125
105.125
104.9375
104.875
104.875
105.0
104.875
104.75
104.5625
104.5625
104.5625
104.625
104.75
104.6875
104.5
104.375
104.3125
104.3125
104.3125
104.3125
104.1875
104.0
103.875
103.9375
103.9375
103.6875
103.4375
103.4375
103.5625
103.5
103.3125
103.25
103.25
103.375
103.3125
103.1875
102.9375
102.8125
102.75
102.6875
102.625
102.5
102.5
102.4375
102.3125
102.1875
102.1875
102.25
102.1875
101.9375
101.6875
101.8125
102.1875
102.375
102.25
102.1875
102.25
102.375
102.625
102.8125
102.75
102.625
102.875
103.0
103.0
102.8125
102.6875
102.6875
102.875
103.125
103.0625
102.75
102.75
103.125
103.375
103.375
103.125
102.875
102.8125
102.8125
102.875
102.875
102.8125
102.6875
102.5
102.5
102.625
102.75
102.6875
102.5625
102.375
102.375
102.5625
102.6875
102.625
102.5625
102.625
102.75
102.875
103.0
103.0625
103.0625
103.0
103.0625
103.0625
103.0
102.875
102.8125
102.9375
103.0625
103.0625
103.0
103.0
103.0625
103.125
103.0625
102.9375
102.75
102.75
102.8125
102.875
102.75
102.6875
102.625
102.5625
102.375
102.375
102.5625
102.625
102.375
102.25
102.5
102.6875
102.75
102.625
102.625
102.75
102.9375
103.0
102.875
102.875
103.125
103.25
103.25
103.25
103.25
103.25
103.25
103.375
103.4375
103.3125
103.125
103.1875
103.4375
103.5625
103.5
103.375
103.375
103.4375
103.4375
103.25
103.1875
103.25
103.25
103.125
103.125
103.1875
103.25
103.25
103.3125
103.3125
103.25
103.125
103.0
103.0
102.9375
102.9375
102.875
102.8125
102.8125
102.875
102.9375
102.8125
102.625
102.625
102.75
102.75
102.5625
102.375
102.1875
102.125
102.25
102.1875
101.9375
101.6875
101.625
101.6875
101.8125
101.8125
101.75
101.625
101.5625
101.5625
101.4375
101.25
101.1875
101.125
101.125
101.0625
101.125
101.3125
101.4375
101.4375
101.4375
101.5
101.5625
101.6875
101.75
101.8125
101.8125
101.8125
101.875
101.9375
102.0625
102.125
102.125
102.1875
102.125
102.0625
102.25
102.4375
102.5
102.4375
102.3125
102.1875
102.0625
102.125
102.1875
102.25
102.1875
102.0625
101.875
101.8125
102.0
102.125
102.0
101.875
101.8125
101.6875
101.6875
101.8125
102.0
102.0625
102.0
101.875
102.0
102.3125
102.4375
102.4375
102.375
102.5
102.625
102.5
102.375
102.25
102.3125
102.4375
102.5
102.375
102.375
102.375
102.5625
102.6875
102.75
102.625
102.4375
102.3125
102.3125
102.3125
102.375
102.1875
102.0
101.9375
102.0625
102.0
102.0
102.0625
102.0625
102.0625
102.125
102.1875
102.125
102.125
102.25
102.3125
102.375
102.5
102.5625
102.5625
102.6875
102.875
103.0
102.9375
102.8125
102.875
102.9375
103.0
103.0
102.875
102.875
103.0
103.1875
103.1875
103.0625
103.0
103.0625
103.0625
103.0625
103.0625
102.9375
102.8125
102.75
102.6875
102.75
102.6875
102.75
102.625
102.625
102.8125
102.9375
103.0625
103.0625
103.0
103.0
103.0
103.1875
103.3125
103.375
103.4375
103.4375
103.5
103.5625
103.625
103.6875
103.6875
103.75
103.6875
103.625
103.6875
103.8125
103.875
103.6875
103.6875
103.6875
103.8125
103.9375
103.875
103.875
103.9375
104.0
104.0625
104.0
103.9375
103.9375
104.0625
104.0
103.9375
103.875
103.75
103.75
103.8125
103.9375
103.875
103.75
103.8125
103.8125
103.6875
103.5625
103.5625
103.5625
103.4375
103.3125
103.25
103.3125
103.375
103.1875
103.0
103.0
103.0
103.0
102.9375
102.75
102.75
102.6875
102.5625
102.4375
102.4375
102.5
102.4375
102.25
102.125
102.375
102.6875
102.6875
102.5
102.4375
102.75
103.0
103.0
102.9375
103.0
103.1875
103.3125
103.3125
103.375
103.375
103.3125
103.3125
103.375
103.375
103.375
103.375
103.375
103.4375
103.5625
103.625
103.5
103.375
103.4375
103.5625
103.4375
103.3125
103.25
103.1875
103.125
103.125
103.0625
103.0625
103.125
103.125
103.125
103.125
103.25
103.3125
103.25
103.3125
103.5
103.5
103.4375
103.5
103.8125
103.9375
103.9375
103.8125
103.875
104.0
103.9375
103.875
103.9375
104.0625
104.0
103.875
103.875
104.125
104.25
104.125
103.875
103.8125
103.875
104.0
104.0
103.9375
103.8125
103.6875
103.625
103.5625
103.625
103.5625
103.5
103.4375
103.625
103.75
103.8125
103.875
103.9375
103.9375
104.0
104.0625
104.1875
104.3125
104.375
104.375
104.375
104.4375
104.5625
104.5625
104.5
104.5
104.625
104.6875
104.5625
104.5625
104.75
104.9375
104.8125
104.625
104.5625
104.625
104.75
104.6875
104.625
104.625
104.5625
104.4375
104.375
104.375
104.375
104.25
104.1875
104.375
104.625
104.6875
104.625
104.625
104.8125
104.9375
105.0
105.0
105.0625
105.0
105.0
105.0625
105.25
105.3125
105.125
105.0625
105.125
105.3125
105.375
105.3125
105.25
105.3125
105.3125
105.3125
105.25
105.1875
105.1875
105.1875
105.1875
105.25
105.25
105.1875
105.125
105.125
105.1875
105.125
104.9375
104.875
104.875
104.8125
104.75
104.625
104.5625
104.5625
104.625
104.5625
104.4375
104.375
104.3125
104.25
104.1875
104.125
104.0625
104.0
103.875
103.8125
103.6875
103.6875
103.5625
103.5
103.5
103.375
103.25
103.125
103.0
102.875
102.875
102.875
103.0
102.875
102.625
102.5
102.5
102.4375
102.4375
102.3125
102.125
102.0
102.1875
102.3125
102.375
102.5
102.5625
102.625
102.6875
102.8125
102.875
102.875
102.9375
103.0
103.0625
103.125
103.125
103.0625
103.0625
103.1875
103.3125
103.1875
103.0625
103.125
103.3125
103.4375
103.3125
103.25
103.1875
103.1875
103.125
103.125
103.0625
103.0625
103.0
102.8125
102.8125
102.8125
102.875
102.8125
102.6875
102.625
102.625
102.75
102.8125
102.9375
103.0
102.9375
102.9375
103.125
103.25
103.25
103.25
103.375
103.4375
103.5
103.4375
103.375
103.375
103.5
103.5625
103.4375
103.4375
103.5
103.5625
103.625
103.6875
103.5625
103.4375
103.3125
103.25
103.3125
103.375
103.3125
103.125
103.0625
103.0625
103.0
103.0
103.0
102.875
102.8125
102.9375
103.125
103.25
103.25
103.25
103.375
103.375
103.375
103.5
103.625
103.625
103.5625
103.5625
103.6875
103.75
103.8125
103.75
103.75
103.8125
103.8125
103.875
103.875
103.875
103.8125
103.6875
103.6875
103.6875
103.8125
103.6875
103.4375
103.4375
103.5625
103.6875
103.5625
103.375
103.375
103.375
103.375
103.25
103.125
103.125
103.0625
103.0
102.875
102.875
102.8125
102.8125
102.875
102.8125
102.6875
102.5
102.25
102.1875
102.25
102.375
102.25
102.125
102.0
101.9375
101.875
101.9375
101.9375
101.8125
101.5625
101.375
101.375
101.375
101.3125
101.125
101.0
101.0
100.875
100.875
100.8125
100.8125
100.75
100.6875
100.5625
100.4375
100.375
100.25
100.0625
100.0
100.25
100.375
100.3125
100.0625
100.0625
100.375
100.8125
101.0
100.875
100.75
100.75
100.8125
100.875
100.875
100.8125
100.8125
100.9375
101.125
101.1875
101.0625
101.0625
101.125
101.25
101.375
101.125
100.8125
100.75
101.0
101.125
101.1875
101.125
101.0
100.875
100.875
100.9375
100.8125
100.6875
100.5
100.5
100.625
100.75
100.8125
100.75
100.75
100.8125
100.9375
101.0
100.9375
100.9375
101.0
101.125
101.375
101.5
101.375
101.125
101.1875
101.3125
101.4375
101.375
101.3125
101.25
101.3125
101.5
101.5625
101.5
101.375
101.375
101.3125
101.3125
101.3125
101.25
101.125
100.875
100.875
101.0
101.0
100.875
100.75
100.6875
100.75
100.9375
101.125
101.0625
100.9375
100.875
101.0625
101.25
101.1875
101.125
101.25
101.4375
101.4375
101.4375
101.5
101.625
101.6875
101.625
101.625
101.625
101.5625
101.5
101.625
101.75
101.625
101.4375
101.4375
101.5625
101.625
101.6875
101.6875
101.8125
101.875
101.75
101.5625
101.5625
101.6875
101.6875
101.5
101.375
101.3125
101.375
101.4375
101.5625
101.5625
101.4375
101.375
101.1875
101.1875
101.25
101.1875
101.0625
100.9375
100.9375
100.875
100.8125
100.8125
100.75
100.6875
100.5625
100.5625
100.4375
100.3125
100.25
100.25
100.25
100.125
100.0
99.9375
99.8125
99.75
99.875
99.9375
99.875
99.75
99.8125
99.875
99.9375
99.9375
100.0
100.0
100.0625
100.0625
100.1875
100.4375
100.5625
100.625
100.5625
100.625
100.75
100.625
100.5625
100.5625
100.75
100.8125
100.6875
100.625
100.6875
100.8125
100.9375
100.875
100.8125
100.75
100.8125
100.8125
100.875
100.8125
100.6875
100.5625
100.5
100.4375
100.5625
100.5
100.4375
100.4375
100.6875
100.875
100.875
100.75
100.75
100.8125
100.9375
101.125
101.125
101.0625
101.0625
101.1875
101.4375
101.5
101.3125
101.25
101.3125
101.4375
101.5
101.375
101.3125
101.3125
101.5
101.625
101.5625
101.4375
101.25
101.25
101.375
101.5
101.4375
101.25
101.0625
100.9375
101.125
101.25
101.0625
101.0
101.0
100.9375
100.9375
100.9375
101.0625
101.125
101.125
101.25
101.375
101.3125
101.3125
101.5
101.75
101.8125
101.75
101.6875
101.6875
101.75
101.8125
101.875
101.875
101.875
101.875
101.875
101.875
101.9375
102.0
102.0625
102.0
101.9375
101.875
101.9375
102.0
102.0
101.875
101.625
101.625
101.625
101.625
101.75
101.6875
101.5625
101.4375
101.625
101.8125
101.875
101.75
101.6875
101.875
102.0
102.0625
102.1875
102.125
102.0
102.0625
102.375
102.375
102.25
102.1875
102.3125
102.4375
102.4375
102.3125
102.3125
102.4375
102.5625
102.5
102.3125
102.25
102.3125
102.375
102.4375
102.375
102.375
102.25
102.0
101.9375
102.0625
102.25
102.25
102.125
102.0625
102.0625
102.0
101.875
101.8125
101.75
101.75
101.75
101.75
101.5625
101.375
101.375
101.5
101.5
101.375
101.1875
101.125
101.125
101.125
101.125
101.0
100.9375
100.8125
100.6875
100.5625
100.5
100.4375
100.375
100.3125
100.25
100.125
100.125
100.125
100.0625
99.9375
99.6875
99.5
99.5
99.625
99.625
99.5
99.4375
99.625
99.75
99.6875
99.625
99.6875
99.875
99.9375
99.9375
100.0625
100.1875
100.25
100.1875
100.125
100.1875
100.3125
100.375
100.375
100.4375
100.625
100.625
100.4375
100.4375
100.625
100.75
100.625
100.5625
100.5625
100.5625
100.625
100.625
100.5625
100.5
100.4375
100.4375
100.4375
100.3125
100.125
100.0625
100.1875
100.3125
100.375
100.3125
100.25
100.375
100.5625
100.6875
100.6875
100.6875
100.8125
100.9375
100.875
100.75
100.625
100.6875
100.9375
101.0625
100.9375
100.9375
100.9375
101.0
101.125
101.1875
101.0625
100.9375
100.875
100.875
100.875
100.875
100.875
100.75
100.75
100.875
100.75
100.5
100.5
100.625
100.6875
100.5
100.25
100.3125
100.5625
100.875
100.75
100.6875
100.75
100.9375
101.0625
101.1875
101.1875
101.125
101.0625
101.125
101.1875
101.1875
101.1875
101.1875
101.25
101.3125
101.375
101.25
101.25
101.3125
101.5
101.5625
101.375
101.125
101.0625
101.125
101.1875
101.125
101.0625
100.875
100.8125
101.0625
101.25
101.0625
101.0
101.1875
101.375
101.375
101.3125
101.3125
101.4375
101.5625
101.6875
101.8125
101.8125
101.75
101.75
101.6875
101.6875
101.75
101.6875
101.6875
101.8125
101.875
101.75
101.75
102.0
102.125
102.0625
101.8125
101.625
101.75
102.125
102.1875
101.75
101.4375
101.5
101.5625
101.4375
101.375
101.3125
101.375
101.5
101.5625
101.8125
101.9375
101.875
101.8125
101.875
102.0
102.125
102.25
102.25
102.25
102.25
102.4375
102.5625
102.375
102.3125
102.375
102.5625
102.75
102.6875
102.4375
102.375
102.6875
102.9375
102.6875
102.3125
102.3125
102.625
102.75
102.75
102.625
102.6875
102.9375
103.0
102.8125
102.75
102.875
103.0
102.875
102.875
102.875
102.75
102.75
102.875
103.0
102.875
102.75
102.75
102.8125
102.8125
102.8125
102.6875
102.625
102.5625
102.5625
102.625
102.5625
102.4375
102.375
102.1875
102.0625
102.125
102.25
102.125
101.8125
101.8125
101.875
101.8125
101.625
101.5625
101.5
101.4375
101.625
101.6875
101.625
101.75
102.0
102.0625
102.0
102.0625
102.1875
102.1875
102.1875
102.1875
102.1875
102.375
102.5
102.4375
102.4375
102.5
102.5
102.4375
102.5625
102.6875
102.625
102.625
102.625
102.4375
102.3125
102.375
102.4375
102.4375
102.4375
102.4375
102.3125
102.25
102.25
102.3125
102.125
101.9375
101.9375
102.0625
101.9375
101.8125
101.875
102.0625
102.25
102.3125
102.1875
102.125
102.25
102.4375
102.5
102.625
102.6875
102.625
102.5
102.625
102.75
102.625
102.625
102.6875
102.8125
102.8125
102.75
102.75
102.75
102.875
103.0625
102.8125
102.5625
102.5
102.625
102.6875
102.6875
102.75
102.5
102.25
102.3125
102.375
102.3125
102.3125
102.1875
102.1875
102.25
102.4375
102.5625
102.5
102.625
102.5625
102.5
102.625
102.75
102.8125
102.875
103.0625
103.125
103.0625
103.25
103.1875
103.0625
103.1875
103.3125
103.3125
103.1875
103.1875
103.375
103.5
103.4375
103.3125
103.125
103.125
103.1875
103.3125
103.25
103.0625
103.0
103.0625
103.0625
103.0
102.9375
102.875
102.8125
102.8125
102.8125
102.875
103.0
103.0
103.0625
103.1875
103.1875
103.25
103.4375
103.5625
103.5
103.4375
103.625
103.75
103.625
103.5
103.5625
103.75
103.8125
103.6875
103.6875
103.6875
103.875
104.0
103.875
103.75
103.75
103.875
103.75
103.6875
103.75
103.6875
103.5625
103.4375
103.5
103.4375
103.375
103.375
103.375
103.3125
103.375
103.375
103.3125
103.5625
103.625
103.5
103.375
103.75
104.0
103.9375
103.8125
103.8125
103.9375
104.0625
104.125
103.9375
103.875
104.125
104.1875
104.0625
104.0
104.0625
104.1875
104.1875
104.125
104.125
104.125
104.125
104.0
103.875
103.9375
104.0625
103.8125
103.6875
103.75
103.75
103.6875
103.8125
103.8125
103.5625
103.375
103.5625
103.75
103.8125
103.8125
103.8125
104.0
104.125
104.0625
104.0625
104.0625
104.1875
104.3125
104.3125
104.375
104.25
104.25
104.375
104.5
104.5625
104.4375
104.25
104.1875
104.375
104.625
104.5625
104.3125
104.3125
104.375
104.4375
104.4375
104.3125
104.25
104.0625
103.9375
103.9375
103.9375
104.0
104.0
104.0
104.1875
104.4375
104.5
104.3125
104.375
104.6875
104.8125
104.625
104.625
104.75
104.8125
104.75
104.75
104.8125
104.8125
104.9375
104.875
104.875
104.9375
104.9375
104.9375
105.0
105.25
105.4375
105.0625
104.8125
105.0
105.25
105.0625
104.9375
104.9375
105.0625
105.25
105.3125
105.3125
105.25
105.4375
105.5
105.4375
105.5
105.4375
105.25
105.0625
105.25
105.6875
105.75
105.4375
105.25
105.375
105.5
105.5
105.375
105.3125
105.3125
105.3125
105.1875
105.0625
105.0625
105.0625
104.875
104.8125
104.9375
104.875
104.75
104.75
104.875
105.125
105.25
105.0
104.6875
104.6875
104.75
104.625
104.5625
104.625
104.5625
104.375
104.25
104.375
104.375
104.375
104.25
104.0
103.875
103.9375
103.9375
103.875
103.8125
103.8125
103.75
103.625
103.5
103.375
103.1875
103.1875
103.25
103.1875
103.0625
102.9375
102.6875
102.75
102.875
102.75
102.5625
102.4375
102.3125
102.1875
102.125
102.125
102.125
102.1875
101.9375
101.625
101.625
102.0
102.1875
102.0625
102.0
102.0625
102.25
102.3125
102.3125
102.4375
102.5
102.4375
102.5
102.5625
102.6875
102.5625
102.5
102.5625
102.75
102.8125
102.5625
102.5
102.8125
103.0
102.875
102.625
102.6875
102.5625
102.5625
102.5625
102.5
102.4375
102.375
102.1875
102.125
102.25
102.375
102.3125
102.125
101.9375
101.9375
102.0
102.0
102.125
102.25
102.375
102.3125
102.125
102.0625
102.25
102.5
102.5625
102.625
102.6875
102.625
102.5625
102.75
102.875
102.8125
102.75
102.8125
102.6875
102.5625
102.625
102.75
102.9375
103.0
102.875
102.6875
102.4375
102.5
102.625
102.5
102.3125
102.3125
102.3125
102.3125
102.3125
102.125
102.0
102.25
102.4375
102.375
102.3125
102.375
102.4375
102.5625
102.8125
103.0
102.875
102.6875
102.75
102.8125
102.875
103.0
103.0625
102.875
102.8125
102.9375
103.0625
103.0
102.875
103.0
103.1875
103.125
102.9375
102.9375
102.9375
103.0
103.0
103.0625
102.9375
102.5625
102.4375
102.625
102.5625
102.375
102.1875
102.1875
102.25
102.3125
102.25
102.25
102.5
102.6875
102.625
102.5625
102.625
102.75
102.875
102.9375
102.9375
102.875
102.8125
102.875
102.9375
102.9375
103.0
103.0625
103.125
103.0625
103.0625
103.125
103.125
103.0
102.9375
102.875
102.875
102.875
102.875
102.9375
102.9375
102.875
102.6875
102.625
102.5625
102.4375
102.5
102.5625
102.3125
102.1875
102.375
102.6875
102.875
102.8125
102.5625
102.625
102.8125
102.9375
102.8125
102.8125
102.875
103.0625
103.1875
103.25
103.125
103.0625
103.25
103.375
103.3125
103.1875
103.1875
103.25
103.375
103.375
103.25
103.0
102.9375
103.125
103.25
103.125
102.9375
102.9375
102.9375
103.0
102.9375
102.75
102.6875
102.8125
102.875
102.6875
102.5625
102.8125
103.0
103.0
103.0
103.1875
103.3125
103.25
103.25
103.4375
103.5
103.5
103.5
103.625
103.6875
103.8125
103.75
103.75
103.8125
103.875
103.9375
103.8125
103.75
103.75
103.875
104.0
103.9375
103.875
103.75
103.75
103.8125
103.8125
103.6875
103.375
103.25
103.4375
103.6875
103.6875
103.3125
103.25
103.5625
103.875
103.8125
103.6875
103.6875
103.75
103.9375
104.0625
104.1875
104.1875
104.1875
104.25
104.3125
104.375
104.4375
104.25
104.0625
104.25
104.5
104.5
104.3125
104.375
104.5
104.625
104.6875
104.5625
104.3125
104.125
104.125
104.3125
104.375
104.1875
104.0
104.0
104.0
104.0625
104.125
103.9375
103.625
103.625
103.8125
103.9375
103.9375
104.0
104.125
104.1875
104.375
104.5
104.375
104.25
104.3125
104.5625
104.6875
104.5625
104.4375
104.3125
104.4375
104.75
104.8125
104.625
104.5
104.625
104.8125
104.8125
104.6875
104.5
104.4375
104.6875
104.75
104.5
104.375
104.375
104.4375
104.3125
104.1875
104.0625
104.0625
104.25
104.3125
104.125
103.9375
104.125
104.3125
104.375
104.375
104.4375
104.375
104.4375
104.75
104.75
104.0
102.25
102.4375
106.0625
108.125
106.0625
104.0
104.5625
105.5625
105.25
104.625
104.75
105.0
104.8125
104.8125
105.0625
105.1875
105.25
105.1875
105.125
105.0
104.875
104.8125
104.6875
104.4375
104.5
104.6875
104.6875
104.625
104.75
105.0
105.1875
105.0625
104.875
104.875
105.125
105.5
105.625
105.5
105.125
105.0625
105.3125
105.5
105.5
105.25
105.1875
105.4375
105.8125
105.8125
105.5625
105.4375
105.75
106.0
105.75
105.5
105.375
105.375
105.5
105.6875
105.625
105.5
105.25
105.25
105.25
105.0625
105.0
105.0
104.875
104.875
105.0
105.125
105.25
105.3125
105.375
105.5
105.4375
105.4375
105.5
105.625
105.8125
105.9375
105.9375
105.8125
105.75
105.75
105.8125
105.875
105.9375
106.0
105.875
105.75
105.9375
106.125
106.25
106.1875
106.0625
106.0625
106.0
105.875
105.875
105.9375
105.9375
105.8125
105.625
105.625
105.5
105.4375
105.5
105.4375
105.375
105.375
105.5
105.5625
105.5625
105.625
105.75
105.875
106.0
106.0
105.875
105.8125
105.875
106.125
106.125
106.0
105.9375
106.0
106.125
106.0625
106.0625
106.0
105.9375
106.125
106.0625
105.875
105.875
105.9375
105.9375
105.875
105.9375
105.875
105.625
105.5625
105.5
105.5
105.4375
105.3125
105.25
105.3125
105.4375
105.3125
105.25
105.25
105.25
105.875
106.8125
106.3125
105.375
105.6875
106.125
106.0
105.9375
106.125
106.0625
106.0625
106.125
106.25
106.25
106.25
106.3125
106.3125
106.3125
106.375
106.375
106.3125
106.25
106.1875
106.1875
106.25
106.125
106.0625
106.0625
106.0625
105.9375
105.75
105.6875
105.75
105.875
105.875
105.9375
106.0625
106.125
106.0625
106.1875
106.375
106.4375
106.5
106.5
106.5
106.625
106.625
106.625
106.625
106.75
106.875
106.75
106.6875
106.75
106.6875
106.6875
106.875
106.9375
106.8125
106.6875
106.625
106.625
106.75
106.75
106.625
106.5
106.4375
106.4375
106.375
106.3125
106.25
106.25
106.125
106.125
106.1875
106.3125
106.375
106.4375
106.5
106.625
106.6875
106.75
106.875
106.875
106.875
106.9375
106.9375
106.9375
106.9375
107.0
107.0625
107.125
107.0625
107.0
107.0
107.0625
107.1875
107.1875
107.125
107.0
106.875
106.8125
106.8125
106.875
107.0
106.875
106.6875
106.625
106.5625
106.5
106.375
106.4375
106.4375
106.375
106.1875
106.1875
106.4375
106.5625
106.5625
106.5
106.5625
106.6875
106.75
106.8125
106.9375
106.9375
106.9375
107.0
106.875
106.8125
106.875
106.9375
106.9375
106.9375
107.0
106.9375
106.875
107.0
107.0
106.8125
106.75
106.8125
106.8125
106.6875
106.5
106.5
106.625
106.75
106.625
106.375
106.3125
106.375
106.375
106.25
106.125
106.0625
106.0625
106.0625
105.9375
105.75
105.625
105.6875
105.6875
105.5625
105.375
105.3125
105.3125
105.3125
105.3125
105.25
105.0625
104.875
104.875
104.8125
104.6875
104.625
104.5
104.375
104.3125
104.1875
104.125
104.0
103.9375
103.875
103.75
103.625
103.5
103.375
103.25
103.25
103.3125
103.375
103.1875
102.9375
103.0
103.25
103.375
103.25
103.125
103.25
103.5
103.625
103.6875
103.75
103.75
103.8125
103.9375
103.9375
103.8125
103.8125
103.8125
103.875
104.0625
104.1875
104.0625
104.0625
104.125
104.25
104.25
104.125
103.9375
103.8125
103.9375
104.0625
104.0
103.8125
103.75
103.75
103.75
103.75
103.625
103.375
103.375
103.4375
103.4375
103.3125
103.25
103.375
103.5
103.625
103.5625
103.4375
103.5
103.6875
103.875
103.875
103.8125
103.8125
103.875
104.0
104.0
103.9375
103.875
103.875
103.875
103.9375
103.9375
103.9375
103.9375
103.9375
103.875
103.8125
103.8125
103.8125
103.75
103.625
103.625
103.5
103.375
103.25
103.3125
103.4375
103.375
103.1875
103.1875
103.375
103.4375
103.4375
103.4375
103.375
103.4375
103.5625
103.625
103.6875
103.625
103.625
103.6875
103.8125
103.8125
103.6875
103.5625
103.5625
103.75
103.8125
103.75
103.75
103.8125
103.8125
103.75
103.5625
103.5625
103.5625
103.5
103.4375
103.375
103.375
103.25
103.0625
103.0
103.0625
103.0
102.9375
102.875
102.75
102.75
102.8125
102.9375
103.0625
102.9375
103.0
103.0625
103.1875
103.25
103.375
103.4375
103.4375
103.5625
103.6875
103.6875
103.625
103.5625
103.5625
103.625
103.75
103.75
103.625
103.6875
103.75
103.8125
103.75
103.75
103.625
103.5625
103.5
103.625
103.625
103.5625
103.5
103.3125
103.1875
103.1875
103.375
103.3125
103.0625
103.0
103.25
103.5
103.5625
103.4375
103.375
103.5625
103.75
103.75
103.6875
103.6875
103.875
104.0
104.0
104.0
104.0625
104.0
104.0
104.0625
104.1875
104.125
104.125
104.125
104.125
104.25
104.3125
104.1875
104.0
104.0
104.0625
104.125
104.1875
104.125
104.125
104.125
104.25
104.375
104.25
104.0625
103.8125
103.8125
103.9375
103.875
103.6875
103.625
103.6875
103.8125
103.75
103.625
103.4375
103.4375
103.4375
103.375
103.25
103.125
103.125
103.125
103.0625
103.0
102.875
102.6875
102.5625
102.5625
102.625
102.5
102.375
102.25
102.25
102.1875
102.125
102.0
101.875
101.8125
101.6875
101.5625
101.5
101.4375
101.4375
101.4375
101.3125
101.1875
101.25
101.375
101.4375
101.5
101.625
101.5625
101.5
101.5625
101.6875
101.8125
101.875
101.8125
101.8125
101.9375
101.9375
101.875
101.9375
102.0625
102.125
102.0625
101.9375
101.9375
102.125
102.25
102.125
102.0
102.0
101.9375
101.875
101.875
101.9375
101.9375
101.6875
101.5
101.6875
101.8125
101.6875
101.5625
101.5
101.4375
101.4375
101.5
101.5625
101.625
101.625
101.6875
101.75
101.8125
101.9375
102.0
102.0
102.125
102.125
102.125
102.0625
102.0625
102.125
102.1875
102.25
102.1875
102.125
102.125
102.25
102.375
102.1875
102.125
102.25
102.25
102.125
102.0625
102.0
101.875
101.8125
101.8125
101.75
101.625
101.625
101.625
101.6875
101.75
101.8125
101.875
101.875
101.75
101.75
101.9375
102.0625
102.1875
102.25
102.25
102.25
102.375
102.5
102.625
102.625
102.5
102.4375
102.5
102.625
102.5625
102.5625
102.5625
102.6875
102.75
102.5625
102.5
102.5
102.5
102.5625
102.5625
102.5625
102.5625
102.4375
102.375
102.3125
102.375
102.4375
102.25
102.125
102.1875
102.375
102.4375
102.3125
102.3125
102.3125
102.4375
102.5
102.6875
102.75
102.875
102.9375
102.875
102.875
102.9375
102.8125
102.75
102.875
103.0625
103.125
103.0
103.0
103.0625
103.125
103.0625
102.875
102.8125
102.8125
102.8125
102.75
102.8125
102.8125
102.75
102.6875
102.5625
102.5
102.5
102.5
102.375
102.375
102.5
102.625
102.625
102.6875
102.6875
102.6875
102.8125
103.0625
103.125
103.0
102.875
102.875
103.0625
103.25
103.125
103.0
103.0
103.1875
103.25
103.25
103.25
103.375
103.3125
103.125
103.0625
103.0625
103.125
103.0
103.0
102.9375
102.9375
102.875
102.75
102.6875
102.75
102.8125
102.875
102.75
102.5625
102.5625
102.75
102.875
103.0
102.9375
102.9375
102.9375
103.0625
103.25
103.375
103.375
103.3125
103.3125
103.4375
103.4375
103.4375
103.4375
103.5625
103.5625
103.5
103.5
103.5
103.6875
103.8125
103.75
103.6875
103.625
103.625
103.625
103.625
103.625
103.5
103.375
103.3125
103.1875
103.125
103.1875
103.3125
103.1875
103.1875
103.3125
103.4375
103.5625
103.5625
103.5625
103.5625
103.625
103.8125
103.9375
103.9375
104.0
104.1875
104.25
104.25
104.1875
104.1875
104.25
104.3125
104.3125
104.1875
104.125
104.125
104.25
104.375
104.25
104.1875
104.1875
104.3125
104.375
104.3125
104.125
104.0625
104.0625
104.0
103.875
103.8125
103.9375
103.9375
103.875
103.9375
104.1875
104.1875
104.0625
104.0
104.125
104.375
104.5
104.5
104.4375
104.4375
104.5
104.5625
104.6875
104.6875
104.5625
104.625
104.8125
104.9375
104.8125
104.6875
104.6875
104.875
104.875
104.625
104.4375
104.5625
104.75
104.6875
104.625
104.625
104.5
104.375
104.3125
104.25
104.25
104.25
104.3125
104.1875
104.0625
104.125
104.3125
104.5
104.4375
104.375
104.3125
104.4375
104.625
104.6875
104.6875
104.6875
104.8125
104.875
104.875
104.75
104.75
104.8125
104.9375
104.875
104.75
104.75
104.9375
105.0
104.9375
104.8125
104.8125
104.8125
104.75
104.6875
104.6875
104.75
104.6875
104.4375
104.3125
104.3125
104.3125
104.25
104.125
104.0
104.0
104.25
104.5
104.5625
104.5
104.5
104.5625
104.625
104.75
104.75
104.6875
104.6875
104.8125
104.875
104.8125
104.8125
105.0
105.125
105.125
104.9375
104.875
104.9375
105.0
105.0
105.0
104.9375
104.8125
104.8125
104.9375
104.875
104.8125
104.8125
104.75
104.625
104.4375
104.4375
104.4375
104.5
104.375
104.375
104.4375
104.5
104.5625
104.6875
104.75
104.75
104.75
104.875
105.0625
105.125
105.125
105.1875
105.25
105.3125
105.1875
105.125
105.125
105.25
105.375
105.25
105.25
105.375
105.4375
105.4375
105.375
105.375
105.3125
105.1875
105.25
105.1875
105.1875
105.0625
105.0
104.9375
104.875
104.75
104.75
104.8125
104.875
104.75
104.75
104.875
105.0
104.9375
105.0
105.0625
105.1875
105.25
105.3125
105.375
105.375
105.4375
105.5
105.5
105.5
105.5
105.5625
105.625
105.625
105.5625
105.5625
105.5625
105.6875
105.5625
105.4375
105.375
105.4375
105.5625
105.5
105.375
105.25
105.25
105.25
105.125
104.875
104.8125
104.9375
104.9375
104.8125
104.8125
105.0
105.1875
105.125
105.0625
105.0625
105.25
105.375
105.3125
105.3125
105.375
105.4375
105.4375
105.5
105.4375
105.375
105.375
105.4375
105.5625
105.5
105.375
105.375
105.5625
105.625
105.5
105.3125
105.375
105.4375
105.25
105.0625
105.0625
105.1875
105.0625
104.9375
104.8125
104.75
104.75
104.8125
104.6875
104.5625
104.625
104.8125
105.0
105.0
104.875
104.875
105.0625
105.3125
105.25
105.125
105.125
105.3125
105.5
105.5625
105.4375
105.3125
105.375
105.5625
105.6875
105.5625
105.5
105.5
105.625
105.6875
105.5625
105.4375
105.375
105.4375
105.4375
105.375
105.3125
105.25
105.1875
105.125
105.125
105.0625
105.0625
104.875
104.875
