0
94.9375
93.5
92.1875
91.1875
90.5625
90.375
91.625
97.5625
110.0625
125.3125
139.125
151.5625
163.4375
173.6875
181.4375
187.125
191.6875
195.5625
198.9375
201.6875
203.875
205.375
206.0
205.5
203.625
200.125
194.875
187.4375
177.25
164.6875
153.4375
147.1875
143.75
139.9375
136.0625
133.0625
130.5
127.8125
125.125
122.5625
120.0625
117.5625
115.25
113.125
111.1875
109.4375
107.8125
106.3125
104.9375
103.6875
102.5625
101.75
100.8125
99.6875
98.625
97.75
96.9375
95.75
94.375
93.0
91.875
91.3125
91.125
92.1875
97.75
109.9375
125.125
138.9375
151.375
163.25
173.5625
181.5
187.4375
192.125
196.0
199.375
202.1875
204.375
206.0625
206.8125
206.25
204.3125
201.0
195.9375
188.5
178.4375
166.0625
154.5
147.875
144.375
140.75
137.0625
134.125
131.375
128.5625
125.75
123.1875
120.75
118.4375
116.1875
114.0
112.0
110.125
108.4375
106.875
105.4375
104.25
103.25
102.375
101.5
100.4375
99.4375
98.5
97.5625
96.4375
95.0
93.625
92.5
91.9375
91.75
92.6875
97.8125
109.8125
125.25
139.1875
151.625
163.5625
174.0
182.0
187.9375
192.625
196.5625
199.9375
202.8125
205.1875
206.8125
207.5625
207.125
205.4375
202.25
197.1875
189.875
179.8125
167.4375
156.0
149.25
145.5625
141.8125
138.0625
135.0625
132.375
129.5625
126.8125
124.1875
121.6875
119.3125
117.0625
114.875
112.8125
111.0
109.375
107.8125
106.375
105.0625
104.0625
103.125
102.375
101.25
100.0625
99.5
98.625
97.0
95.625
94.5
93.3125
92.625
92.625
93.1875
97.75
109.5625
124.5625
138.3125
151.3125
163.1875
173.0625
181.625
188.4375
193.5
197.25
200.25
203.5
206.25
206.875
207.0
208.25
207.625
203.625
198.5
192.125
182.75
170.1875
157.6875
150.0625
146.5
143.0625
139.25
136.0
133.3125
130.5625
127.8125
125.125
122.5625
120.125
117.75
115.5625
113.5
111.6875
110.0
108.5
107.0
105.8125
104.875
104.0
103.0625
101.875
100.8125
99.75
99.0625
98.0625
96.6875
95.375
94.125
93.0625
92.625
94.1875
100.9375
114.0625
129.25
142.9375
155.375
167.0625
177.0
184.625
190.375
194.875
198.625
202.0625
205.1875
207.625
209.125
209.625
208.875
206.8125
203.25
197.75
189.9375
179.625
167.25
156.0625
149.75
146.125
142.3125
138.6875
135.875
133.3125
130.625
127.8125
125.0
122.4375
120.125
117.9375
115.6875
113.625
111.875
110.3125
108.75
107.4375
106.3125
105.375
104.5
103.5
102.375
101.3125
100.375
99.375
98.0
96.625
95.375
94.5
94.1875
94.375
97.4375
106.9375
121.625
136.5
149.5
161.75
172.875
181.75
188.375
193.4375
197.5625
201.0625
204.0625
206.75
208.75
209.9375
209.875
208.625
205.9375
201.5
195.125
186.1875
174.4375
161.875
152.9375
148.5625
145.0625
141.1875
137.9375
135.25
132.5
129.6875
126.9375
124.3125
121.8125
119.5
117.25
115.1875
113.3125
111.5625
109.9375
108.5
107.25
106.3125
105.375
104.4375
103.375
102.3125
101.3125
100.3125
99.0
97.5625
96.25
95.375
94.875
94.8125
96.375
103.375
116.875
132.1875
145.6875
158.0
169.625
179.4375
186.75
192.25
196.5625
200.3125
203.5
206.25
208.4375
209.875
210.3125
209.4375
207.1875
203.3125
197.5625
189.5
178.8125
166.0625
155.3125
149.6875
146.1875
142.375
138.8125
136.0
133.375
130.625
127.8125
125.0625
122.5
120.125
117.875
115.75
113.875
112.125
110.4375
108.9375
107.75
106.75
105.875
104.8125
103.8125
102.75
101.75
100.75
99.5625
98.125
96.8125
95.8125
95.3125
95.1875
96.5625
102.9375
115.9375
131.375
145.125
157.625
169.4375
179.5
186.9375
192.5
196.9375
200.75
204.0
206.8125
209.1875
210.6875
211.25
210.5625
208.3125
204.375
198.5625
190.4375
179.625
167.0
156.5625
150.875
147.3125
143.5
139.9375
137.0
134.25
131.3125
128.5
125.75
123.125
120.625
118.25
116.0
113.875
111.9375
110.0
108.3125
106.8125
105.625
104.6875
103.75
102.625
101.5
100.5
99.5625
98.5
97.0625
95.5625
94.1875
93.375
93.125
93.375
96.3125
105.6875
120.3125
135.0625
148.0625
160.25
171.3125
180.125
186.625
191.6875
195.8125
199.3125
202.3125
204.9375
207.0
208.0625
208.0
206.625
203.75
199.125
192.4375
183.125
171.0
158.5625
150.4375
146.5
142.9375
139.0
135.8125
133.1875
130.5
127.75
125.0625
122.4375
119.9375
117.625
115.5
113.5
111.5625
109.875
108.3125
106.8125
105.5
104.5
103.5625
102.5625
101.5
100.5
99.5625
98.5625
97.25
95.75
94.4375
93.4375
92.875
92.75
93.5625
98.5625
110.3125
125.5625
139.3125
151.6875
163.5
173.6875
181.5625
187.4375
192.0
195.8125
199.1875
202.0
204.375
205.9375
206.5
206.0
204.125
200.5625
195.0
187.0625
176.5
164.125
153.6875
147.9375
144.25
140.1875
136.375
133.1875
130.3125
127.625
125.0
122.4375
119.9375
117.625
115.5625
113.625
111.875
110.1875
108.625
107.3125
106.1875
105.125
104.0
102.875
101.875
100.9375
100.0
98.75
97.25
95.8125
94.75
94.0625
93.75
94.125
97.75
107.9375
122.625
136.875
149.625
161.8125
172.5
180.875
187.1875
192.0625
195.875
199.25
202.125
204.5
206.25
207.125
206.875
205.1875
202.0
197.0
189.625
179.5625
167.1875
155.9375
149.25
145.5
141.9375
138.3125
135.3125
132.5625
129.75
127.0
124.375
121.875
119.5625
117.3125
115.25
113.25
111.5625
110.1875
109.0625
107.9375
106.8125
105.625
104.4375
103.3125
102.125
100.5625
99.0
97.75
96.8125
96.25
96.25
98.4375
106.6875
120.875
135.75
148.8125
161.0
172.3125
181.4375
188.3125
193.375
197.5
201.0
204.0
206.4375
208.4375
209.625
209.8125
208.75
206.125
201.75
195.1875
186.25
174.6875
161.875
152.5625
148.0625
144.8125
141.0
137.6875
135.0
132.375
129.5625
126.75
124.125
121.625
119.375
117.25
115.25
113.625
112.3125
111.1875
110.0625
108.75
107.4375
106.25
105.1875
103.875
102.3125
100.75
99.4375
98.75
98.5625
99.3125
104.375
116.4375
131.9375
146.0625
158.5
170.3125
180.3125
187.875
193.4375
197.75
201.375
204.5625
207.3125
209.5625
211.125
211.5
210.5625
208.3125
204.375
198.5
190.1875
179.125
166.125
155.625
150.1875
146.75
142.8125
139.125
136.0625
133.1875
130.0625
126.875
123.875
121.0625
118.5
116.1875
114.125
112.1875
110.5
109.1875
107.9375
106.8125
105.5
104.25
103.0
101.875
100.5625
98.9375
97.375
96.0
95.125
94.75
94.8125
97.5
106.5
121.0
135.8125
148.75
160.875
171.875
180.5
186.875
191.4375
195.25
198.8125
201.75
204.0
205.875
206.75
206.3125
204.8125
201.5625
196.125
188.3125
177.6875
164.9375
153.8125
147.6875
144.25
140.3125
136.375
133.4375
131.0625
128.375
125.625
123.125
120.6875
118.3125
116.1875
114.0625
111.875
110.3125
109.1875
108.0
106.75
105.5
104.3125
103.3125
102.375
101.0
99.3125
97.75
96.4375
95.5625
95.125
94.75
95.375
100.6875
113.125
128.5
142.1875
154.25
165.5
175.0625
182.375
188.0625
192.4375
195.9375
198.875
201.375
203.5
204.8125
204.9375
203.6875
200.875
196.125
188.9375
178.8125
166.625
155.4375
148.625
144.8125
141.0625
137.3125
134.25
131.625
128.9375
126.25
123.625
121.0625
118.9375
116.9375
114.875
113.0625
111.5625
110.1875
109.0625
108.125
107.25
106.25
105.125
104.0625
103.1875
102.125
100.875
99.3125
97.875
97.0
96.625
96.9375
99.5
108.25
123.0
138.5
152.0
164.625
176.1875
185.25
191.8125
196.6875
200.8125
204.4375
207.5
210.0
212.1875
213.3125
213.25
211.75
208.625
204.0
197.3125
188.1875
176.25
163.4375
154.75
150.5625
147.0625
143.0
139.625
136.75
133.875
130.875
128.125
125.4375
122.875
120.4375
118.125
115.9375
113.9375
112.0625
110.4375
108.9375
107.5625
106.0625
104.5625
103.1875
101.875
100.5625
98.9375
97.1875
95.6875
94.6875
94.0625
93.9375
95.625
102.9375
116.1875
131.1875
144.625
157.0
168.5
177.8125
184.875
190.1875
194.3125
197.6875
200.6875
203.1875
205.0625
206.3125
206.5
205.125
202.1875
197.4375
190.625
181.0625
168.8125
156.5625
148.8125
144.875
141.0
137.0625
134.0
131.375
128.625
126.0
123.3125
120.75
118.375
116.0625
113.8125
111.8125
110.0
108.5
107.3125
106.1875
105.0
103.75
102.5625
101.5
100.4375
99.0625
97.4375
95.875
94.75
94.0625
93.75
93.9375
97.0
106.6875
121.5625
136.25
148.9375
160.8125
171.25
179.375
185.5625
190.375
194.1875
197.375
200.125
202.375
203.9375
204.4375
203.75
201.6875
198.0
192.125
183.625
172.3125
159.6875
149.8125
144.8125
141.4375
137.5625
134.125
131.3125
128.75
126.0
123.25
120.75
118.4375
116.1875
114.0
111.875
110.125
108.625
107.4375
106.25
105.125
103.875
102.625
101.4375
100.3125
99.0
97.375
95.875
94.6875
94.0625
93.75
94.0
97.5
107.625
122.6875
137.1875
149.6875
161.4375
171.8125
179.875
185.9375
190.625
194.375
197.4375
200.0625
202.125
203.4375
203.8125
203.0
200.75
196.75
190.6875
182.0625
170.8125
158.875
149.9375
145.5
142.1875
138.5
135.1875
132.625
130.125
127.4375
124.6875
122.125
119.625
117.375
115.25
113.25
111.4375
109.9375
108.75
107.6875
106.625
105.5
104.25
103.25
102.1875
100.8125
99.1875
97.6875
96.625
96.0625
96.0
98.0625
106.3125
120.4375
135.5625
148.9375
161.375
172.875
182.25
189.3125
194.5625
198.5625
202.0
205.0625
207.625
209.5625
210.5625
210.5
209.0625
206.25
201.625
194.9375
185.875
174.0
161.625
153.1875
148.8125
145.375
141.6875
138.5625
135.875
133.25
130.375
127.625
125.0
122.4375
120.1875
117.9375
115.8125
113.9375
112.3125
111.0625
110.0625
109.0625
108.0625
107.0
105.9375
105.0
103.9375
102.5
101.0
99.625
98.5
97.8125
97.8125
100.0
108.3125
122.9375
138.625
152.3125
165.0625
176.75
185.9375
192.625
197.625
201.625
205.0
208.0625
210.75
212.75
213.8125
213.6875
212.4375
209.5
204.75
198.0
188.9375
176.875
163.6875
154.375
149.625
145.8125
141.5625
137.8125
134.5625
131.4375
128.25
125.25
122.5
120.0625
117.5625
114.8125
112.5
110.4375
108.6875
107.0
105.875
105.0
104.0625
103.0625
101.9375
100.6875
99.4375
98.0625
96.5625
94.9375
93.4375
92.5625
92.0625
92.125
95.4375
105.3125
120.0625
134.8125
148.0625
160.375
171.3125
179.75
186.0625
190.875
194.625
197.875
200.75
203.0625
204.625
205.5
205.1875
203.375
200.0
194.625
186.8125
176.375
163.875
153.0
147.0625
143.75
140.0625
136.375
133.5
131.0
128.3125
125.4375
122.75
120.375
118.125
115.875
113.75
111.8125
110.125
108.6875
107.4375
106.1875
104.8125
103.4375
102.1875
101.1875
100.0
98.375
96.625
95.25
94.3125
93.625
93.4375
95.1875
102.4375
116.125
131.3125
144.5625
156.4375
167.4375
176.4375
183.125
188.3125
192.3125
195.6875
198.6875
201.0625
202.75
203.5625
203.375
201.8125
198.25
192.6875
185.375
175.4375
163.1875
152.6875
147.0
143.9375
140.375
136.6875
133.8125
131.3125
128.4375
125.4375
122.75
120.3125
118.0
115.75
113.6875
111.6875
109.9375
106.8125
101.3125
102.0
108.8125
109.6875
103.8125
100.0
101.6875
100.9375
96.875
95.625
96.1875
96.0
95.1875
96.875
106.0
121.125
136.25
149.25
161.6875
173.5
183.1875
190.3125
195.375
198.75
201.6875
204.9375
207.9375
210.0625
210.8125
210.0625
208.1875
205.625
201.875
194.0
184.25
173.3125
161.0
152.3125
148.5
145.6875
142.3125
139.1875
136.25
133.3125
130.3125
127.3125
124.75
122.3125
119.75
117.0625
114.6875
113.0625
112.125
111.1875
109.75
108.5
107.25
105.875
104.6875
103.875
103.0625
101.9375
100.375
98.6875
97.375
96.625
96.3125
97.0625
102.25
114.625
130.5625
145.3125
158.5625
170.625
180.75
188.5625
194.5625
199.0
202.5
205.6875
208.5
210.625
212.0625
212.4375
211.4375
208.875
204.6875
198.6875
190.5
179.5625
166.5
155.3125
149.1875
145.4375
141.5
138.0
135.0
132.125
129.125
126.25
123.25
120.4375
118.0625
115.875
113.6875
111.6875
110.0
108.3125
106.875
105.5
103.4375
103.3125
103.0625
101.25
99.5
98.75
98.0
96.625
95.0
93.625
92.8125
92.125
92.25
96.0625
106.375
121.25
136.0
149.1875
161.625
172.4375
180.625
186.75
191.25
195.125
198.625
201.625
204.0625
205.8125
206.5625
205.9375
204.0625
200.625
195.25
187.625
177.25
164.625
153.5625
147.5625
144.25
140.625
137.0
134.0625
131.4375
128.625
125.8125
123.3125
120.9375
118.625
116.25
114.0625
112.125
110.4375
109.375
108.0625
106.3125
105.0
104.1875
102.875
101.5
100.5625
99.375
97.6875
96.0625
95.0
94.375
94.0
94.375
97.5
106.9375
122.0625
137.0
149.6875
161.5625
172.375
180.8125
187.125
192.1875
196.25
199.5
202.25
204.375
206.0
206.75
206.0625
204.375
201.1875
196.25
189.3125
179.125
166.375
155.0
148.5625
145.0625
141.625
138.1875
135.25
132.625
129.75
126.8125
124.0
121.3125
118.9375
116.75
114.375
112.1875
110.625
109.3125
108.0
106.875
105.9375
104.8125
103.5
102.4375
101.5625
100.3125
98.75
97.3125
96.0
94.875
94.5
96.1875
103.0625
116.25
131.75
145.5
157.9375
170.3125
181.0625
188.375
193.5625
197.75
200.875
203.8125
207.125
209.9375
211.75
212.1875
211.0
208.25
204.0625
198.25
190.375
179.4375
166.625
156.0
150.1875
146.5625
142.9375
139.1875
135.5625
132.25
129.9375
127.75
125.3125
122.9375
120.5
118.0625
115.8125
113.9375
112.125
110.25
108.625
107.4375
106.625
106.0
105.125
104.0
102.75
101.375
100.0625
98.6875
97.1875
96.0625
95.625
95.8125
98.8125
108.4375
123.5625
139.0
152.875
166.0625
177.25
185.875
192.1875
197.25
201.3125
204.875
208.5
211.125
212.5625
213.0
212.375
210.5625
207.5625
202.875
196.0
186.75
174.875
162.4375
153.75
149.3125
145.625
141.5625
138.0
134.9375
132.375
129.4375
125.9375
123.0
120.625
118.0
115.3125
113.25
111.5625
109.75
108.0
106.75
105.8125
104.75
103.6875
102.5625
101.25
99.875
98.3125
96.8125
95.3125
94.25
93.5625
93.125
94.0625
99.75
112.4375
128.0
142.25
155.25
167.375
177.5
185.125
190.75
195.0625
198.5625
201.75
204.625
206.8125
208.125
208.5625
207.75
205.375
201.3125
195.1875
186.8125
175.875
163.125
152.6875
147.125
143.75
140.0
136.4375
133.625
131.0625
128.3125
125.375
122.625
120.25
117.9375
115.6875
113.5625
111.625
109.875
108.4375
107.375
106.25
104.9375
103.375
102.1875
101.3125
100.125
98.375
96.6875
95.5625
94.625
94.125
95.0
100.25
112.5625
128.625
143.25
156.0625
168.0
178.0
185.4375
190.9375
195.4375
199.1875
202.3125
205.0
207.125
208.375
208.625
207.6875
205.25
201.125
195.125
187.0
175.9375
163.4375
153.75
148.4375
144.625
140.9375
137.5625
134.6875
131.9375
129.0625
126.0
123.1875
120.625
118.125
115.75
113.5625
111.6875
110.0
108.625
107.5
106.5
105.4375
104.3125
103.125
101.9375
100.75
99.4375
97.8125
96.375
95.25
94.4375
94.4375
97.5625
107.6875
123.25
138.875
152.5
165.25
176.625
185.625
192.0625
196.875
200.75
204.0625
206.875
209.4375
211.375
212.1875
211.75
210.0625
206.75
201.875
195.25
186.125
174.3125
161.6875
152.625
148.0
144.4375
140.5625
137.1875
134.375
131.625
128.625
125.625
122.8125
120.25
117.875
115.625
113.375
111.5625
109.875
108.375
107.1875
106.25
105.1875
103.9375
102.6875
101.5625
100.4375
99.0625
97.4375
96.0
94.9375
94.3125
94.5625
98.4375
109.375
125.25
140.6875
154.1875
166.8125
177.9375
186.375
192.5625
197.3125
201.1875
204.375
207.0625
209.4375
211.1875
211.875
211.375
209.5
206.0625
200.9375
193.875
184.375
172.25
159.5625
150.9375
146.6875
143.25
139.5
136.0625
133.1875
130.3125
127.1875
124.3125
121.8125
119.375
116.9375
114.625
112.5625
110.625
108.9375
107.5
106.25
105.1875
104.125
102.9375
101.8125
100.6875
99.5625
98.4375
97.0625
95.4375
94.0625
93.3125
93.0625
94.5
101.375
115.3125
131.6875
146.3125
159.375
171.5
181.5625
188.9375
194.1875
198.375
201.875
204.9375
207.6875
209.9375
211.3125
211.5625
210.4375
207.9375
204.0
198.1875
190.0
179.3125
166.5
154.9375
148.4375
144.8125
141.0
137.25
134.3125
131.625
128.6875
125.6875
122.75
120.125
117.75
115.5
113.25
111.1875
109.375
107.6875
106.3125
105.3125
104.375
103.25
102.125
100.9375
99.75
98.75
97.5625
95.9375
94.5
93.5625
93.0
93.4375
97.6875
109.1875
125.5
141.0
154.3125
166.8125
177.8125
186.125
192.0625
196.5625
200.25
203.4375
206.1875
208.625
210.25
210.875
210.25
208.25
204.6875
199.5
192.3125
182.5625
170.125
157.5
149.1875
145.0
141.5
137.625
134.3125
131.75
129.0
125.875
122.875
120.1875
117.625
115.25
113.0625
111.1875
109.625
108.125
106.6875
105.25
103.8125
102.4375
101.1875
100.0625
99.1875
98.3125
97.25
95.8125
94.25
93.0625
92.4375
92.625
95.6875
105.75
121.5625
137.25
150.875
163.5625
174.875
183.75
190.0625
194.75
198.6875
202.125
205.0625
207.625
209.4375
210.25
209.9375
208.25
205.0
200.125
193.375
184.1875
172.25
159.1875
149.6875
145.0
141.5625
137.6875
134.3125
131.6875
128.875
125.875
123.0
120.3125
117.875
115.5625
113.125
110.75
108.625
106.8125
105.375
104.3125
103.375
102.3125
101.375
100.625
99.9375
99.0625
97.75
95.75
93.625
92.25
91.625
91.8125
95.3125
105.875
121.9375
137.8125
151.5625
164.375
175.8125
184.625
190.9375
195.5
199.0
202.0
204.875
207.25
208.75
209.6875
209.4375
207.5
204.25
199.4375
192.25
182.5
170.0625
156.875
147.875
143.5625
140.125
136.1875
133.0
130.3125
127.5625
124.875
122.375
120.0
117.25
114.375
111.9375
109.9375
107.8125
105.8125
104.375
103.5
102.8125
102.0
100.8125
99.5625
98.4375
97.5
96.25
94.625
93.0
91.8125
91.3125
91.625
95.125
105.75
122.0
137.875
151.5625
164.1875
175.5
184.25
190.4375
194.9375
198.625
201.75
204.4375
206.6875
208.4375
209.25
208.8125
207.0
203.6875
198.5625
191.375
181.625
169.375
156.75
148.125
143.75
140.125
136.125
132.75
129.9375
127.125
124.1875
121.4375
118.875
116.4375
113.9375
111.625
109.4375
107.5625
105.9375
104.625
103.5625
102.625
101.6875
100.625
99.375
98.25
97.125
95.75
94.1875
92.6875
91.5625
91.0
91.5
95.8125
107.5625
124.0625
139.6875
153.25
166.0625
177.4375
185.9375
191.375
195.4375
199.1875
202.125
204.625
206.75
208.5
209.0625
207.9375
205.3125
201.875
196.4375
188.9375
179.9375
168.0
155.0
146.4375
143.0
140.0625
135.5625
131.375
128.4375
125.875
122.9375
120.125
117.4375
114.75
112.125
108.4375
106.1875
108.9375
110.0625
104.875
101.0
101.4375
101.75
100.0625
98.1875
97.1875
96.375
95.1875
93.625
92.0625
90.8125
90.1875
90.4375
93.5
103.375
119.4375
135.6875
149.6875
162.625
174.1875
183.1875
189.5
194.125
197.875
201.0625
203.8125
206.1875
207.875
208.4375
207.9375
206.25
203.125
198.375
191.5625
182.1875
170.0625
157.1875
148.0
143.1875
139.625
135.75
132.375
129.625
126.75
123.75
120.9375
118.375
115.875
113.4375
111.0625
108.9375
107.125
105.5625
104.125
102.9375
102.0
100.9375
99.75
98.5625
97.5625
96.5
95.25
93.625
92.0
90.8125
90.1875
90.4375
93.5625
103.8125
120.0
136.0
149.625
162.5
174.1875
183.1875
189.4375
194.0
197.625
200.8125
203.5625
205.9375
207.6875
208.375
207.8125
205.9375
202.9375
198.25
191.375
181.875
169.6875
156.9375
147.875
143.125
139.4375
135.625
132.25
129.5625
126.6875
123.5625
120.625
118.0
115.5625
113.1875
110.9375
108.875
107.0
105.25
103.875
102.6875
101.6875
100.875
99.8125
98.5
97.3125
96.3125
95.25
93.8125
92.0625
90.6875
89.9375
89.9375
91.9375
99.9375
114.9375
131.5
146.0
159.125
171.3125
181.0
187.9375
192.875
196.8125
200.1875
203.125
205.5
207.375
208.375
208.1875
206.6875
203.75
199.3125
193.25
184.375
172.6875
159.6875
149.375
143.9375
140.375
136.5
132.9375
130.0
127.125
124.1875
121.25
118.5
116.0
113.5
111.1875
109.1875
107.3125
105.4375
104.0
102.75
101.75
100.8125
99.625
98.5
97.375
96.4375
95.5
94.125
92.4375
90.9375
89.875
89.5
90.375
95.1875
107.5
124.3125
139.9375
153.25
165.8125
176.875
185.125
190.8125
194.875
198.25
201.4375
204.125
206.375
207.6875
207.8125
206.75
204.4375
200.8125
195.4375
187.8125
177.375
164.3125
152.0625
144.75
141.0625
137.375
133.5625
130.5
127.8125
124.9375
121.9375
119.0625
116.4375
114.0625
111.875
109.625
107.6875
105.9375
104.1875
102.625
101.5
100.625
99.5625
98.5625
97.4375
96.3125
95.3125
94.25
92.9375
91.4375
90.125
89.25
89.0625
90.375
97.125
111.3125
128.3125
143.0625
156.125
168.375
178.75
186.1875
191.4375
195.4375
198.75
201.5625
203.9375
206.0
207.25
207.3125
206.1875
203.6875
199.5625
193.6875
185.5625
174.4375
161.0625
149.6875
143.5
139.9375
136.125
132.4375
129.5
126.8125
123.8125
120.875
118.25
115.75
113.3125
111.0
108.875
106.9375
105.1875
103.5
102.0
100.6875
99.625
98.8125
98.0
96.9375
95.625
94.5625
93.6875
92.625
91.0625
89.5625
88.375
87.9375
88.25
91.3125
101.3125
117.5
133.875
147.75
160.6875
172.4375
181.5625
187.9375
192.5625
196.25
199.4375
202.1875
204.5625
206.3125
207.125
206.75
205.125
202.0
197.3125
190.75
181.4375
169.3125
156.3125
146.875
142.0625
138.375
134.3125
130.9375
128.1875
125.5
122.625
119.875
117.25
114.75
112.3125
110.0625
108.0625
106.125
104.3125
102.625
101.1875
100.0625
99.1875
98.3125
97.3125
96.1875
95.125
94.1875
93.125
91.8125
90.25
88.875
88.0
87.75
88.9375
95.3125
109.25
126.125
141.125
154.375
166.875
177.375
184.8125
190.125
194.1875
197.625
200.625
203.3125
205.3125
206.5
206.8125
205.75
203.25
199.4375
193.75
185.6875
174.6875
161.5625
150.0625
143.4375
139.75
136.0
132.375
129.4375
126.8125
124.0
121.1875
118.4375
115.9375
113.5
111.125
108.875
106.625
104.625
102.875
101.4375
100.0
98.75
98.125
98.0625
97.375
96.0
94.5625
93.5625
92.4375
91.1875
90.125
89.25
88.75
88.625
89.5625
95.6875
109.3125
125.875
140.6875
154.3125
166.6875
176.625
184.375
190.875
195.125
198.125
200.9375
203.0
204.625
206.5625
206.1875
205.1875
204.9375
202.375
195.75
185.875
174.8125
162.625
151.4375
144.375
140.5
136.8125
133.1875
130.0625
127.25
124.4375
121.5625
118.6875
116.0625
113.875
112.5
109.375
106.625
107.5
105.4375
102.875
100.3125
98.5625
96.25
96.0
97.0625
96.5
94.6875
93.4375
92.75
92.0625
90.9375
89.25
87.9375
88.25
87.0
85.6875
91.625
105.625
122.25
137.125
150.8125
163.5625
174.75
183.4375
189.3125
193.4375
197.125
200.4375
203.0625
205.1875
206.5625
207.0
206.0
203.75
200.8125
196.25
189.0625
179.0625
166.4375
153.8125
145.625
141.4375
137.8125
134.0
130.8125
128.125
125.4375
122.5625
119.5625
116.9375
114.5
112.125
109.6875
107.875
106.125
104.125
102.625
101.25
99.625
98.125
97.0
96.125
95.4375
94.8125
94.1875
93.3125
92.375
91.5625
90.375
89.125
87.75
86.5625
86.0625
86.375
89.8125
100.3125
116.5625
132.5625
146.4375
159.75
171.5625
180.5625
187.0625
191.875
195.6875
199.0
201.9375
204.4375
206.4375
207.3125
206.9375
205.375
202.5625
198.125
191.6875
182.875
171.0625
157.875
147.9375
143.0
139.5625
135.6875
132.125
129.3125
126.625
123.6875
120.6875
118.0
115.625
113.3125
111.0625
109.0
107.0
105.1875
103.5625
102.0625
100.5625
99.25
98.0
97.0
96.25
95.4375
94.5625
93.5625
92.625
91.625
90.6875
89.4375
88.125
87.125
86.625
86.6875
89.25
98.4375
114.25
130.6875
144.8125
157.875
169.9375
179.4375
186.3125
191.4375
195.4375
198.75
201.5625
204.1875
206.25
207.3125
207.1875
205.875
203.1875
199.0
193.0
184.625
173.375
160.1875
149.4375
143.75
140.25
136.5
133.0
130.0625
127.25
124.3125
121.4375
118.8125
116.3125
113.9375
111.6875
109.5
107.5
105.75
104.125
102.5625
101.0625
99.6875
98.375
97.375
96.625
95.875
95.0
94.0
93.0625
92.25
91.375
90.125
88.75
87.5
86.625
86.375
87.3125
92.9375
106.125
123.0625
138.375
151.8125
164.4375
175.1875
183.125
188.9375
193.5
197.3125
200.5
203.25
205.625
207.1875
207.625
206.875
205.0625
201.875
197.0
189.9375
180.25
167.875
155.25
146.875
142.75
139.1875
135.3125
132.0625
129.375
126.5
123.5625
120.6875
117.9375
115.5
113.25
111.0
109.0
107.1875
105.5
103.8125
102.1875
100.75
99.625
98.625
97.6875
96.8125
95.9375
95.0
94.0
93.1875
92.4375
91.3125
89.625
88.25
87.5
87.375
88.5
94.4375
107.75
124.5
139.625
153.0
165.5625
176.3125
184.25
189.9375
194.125
197.875
201.125
203.875
206.1875
207.75
208.4375
207.75
205.6875
202.25
197.3125
190.25
180.4375
167.8125
155.25
147.125
142.9375
139.375
135.625
132.5
129.75
126.875
124.0
121.1875
118.5
116.0
113.75
111.5625
109.375
107.4375
105.75
104.25
102.8125
101.375
100.125
99.0625
98.125
97.25
96.3125
95.375
94.4375
93.625
92.75
91.625
90.375
89.125
88.0625
87.6875
88.4375
93.0
104.8125
121.375
137.0625
150.8125
163.6875
174.875
183.3125
189.3125
194.0
197.875
201.25
204.25
206.875
208.6875
209.375
209.0
207.375
204.3125
199.6875
193.0
183.75
171.6875
158.875
149.6875
145.125
141.5625
137.625
134.0625
131.25
128.5
125.5625
122.75
120.125
117.625
115.1875
112.875
110.6875
108.75
107.0625
105.5625
104.0625
102.625
101.1875
100.0625
99.25
98.4375
97.5625
96.5
95.5
94.5
93.6875
92.5625
91.1875
89.9375
89.0
88.6875
89.25
93.5625
105.25
121.9375
137.625
151.25
164.125
175.375
183.875
189.875
194.5
198.375
201.8125
204.8125
207.5
209.5
210.3125
209.9375
208.25
205.1875
200.625
194.125
185.0625
173.125
160.0
150.5625
145.875
142.4375
138.5
135.0
132.1875
129.375
126.3125
123.3125
120.5625
118.125
115.875
113.625
111.5625
109.6875
107.9375
106.25
104.6875
103.3125
102.0625
101.0
100.125
99.25
98.3125
97.25
96.25
95.3125
94.375
93.25
91.875
90.625
89.8125
89.6875
90.8125
96.4375
109.4375
126.0625
141.25
154.6875
167.4375
178.1875
186.0625
191.8125
196.25
200.0625
203.4375
206.375
208.8125
210.5625
211.1875
210.5
208.5625
205.3125
200.375
193.375
183.6875
171.25
158.4375
149.9375
145.75
142.25
138.375
135.0625
132.25
129.4375
126.5
123.5625
120.8125
118.3125
115.9375
113.75
111.6875
109.625
107.9375
106.4375
104.9375
103.4375
102.0625
101.0625
100.1875
99.375
98.5
97.5625
96.5
95.5625
94.6875
93.5625
92.25
90.9375
90.0625
89.6875
90.25
94.5625
106.1875
122.6875
138.5
152.25
165.1875
176.5
185.0625
191.25
196.0625
199.9375
203.25
206.125
208.8125
210.9375
211.9375
211.5
209.8125
206.8125
202.375
195.8125
186.6875
174.75
161.6875
151.9375
147.0
143.5
139.5625
135.9375
133.0625
130.1875
127.25
124.25
121.5
118.875
116.375
113.9375
111.75
109.75
107.9375
106.1875
104.6875
103.25
102.0
100.875
99.875
98.875
97.9375
96.75
95.75
94.8125
93.8125
92.375
90.875
89.75
89.125
89.125
90.625
97.5625
111.5
127.9375
142.6875
156.0
168.3125
178.3125
185.6875
191.125
195.375
199.0625
202.25
205.0625
207.3125
208.75
209.125
208.3125
206.1875
202.5625
197.1875
189.4375
179.0
166.125
154.3125
147.375
143.6875
139.875
135.9375
132.875
130.25
127.4375
124.5625
121.9375
119.4375
117.0
114.625
112.5
110.5
108.75
107.0
105.25
103.875
102.6875
101.625
100.4375
99.375
98.3125
97.375
96.5625
95.5
94.1875
92.6875
91.3125
90.375
90.0625
90.4375
93.5625
103.5625
119.3125
135.0625
148.6875
161.3125
172.375
181.0
187.375
192.1875
196.0625
199.25
202.125
204.6875
206.4375
207.25
206.9375
205.4375
202.4375
197.8125
190.8125
180.9375
168.5
156.3125
148.5
144.375
140.5
136.5
133.1875
130.4375
127.75
125.0
122.4375
119.9375
117.5
115.1875
112.9375
111.0
109.25
107.75
106.25
104.875
103.6875
102.5625
101.375
100.1875
99.1875
98.125
96.8125
95.3125
93.8125
92.5625
91.875
91.75
92.625
98.5
111.875
128.1875
142.875
155.9375
167.875
177.6875
185.0625
190.5625
194.8125
198.5
201.875
204.75
207.0625
208.4375
208.4375
207.1875
204.75
200.875
195.0625
186.625
175.25
162.3125
152.1875
146.8125
143.1875
139.3125
135.8125
132.9375
130.125
127.125
124.1875
121.625
119.25
116.875
114.5
112.375
110.5
108.9375
107.4375
105.9375
104.6875
103.75
102.875
101.75
100.5625
99.5
98.625
97.5
95.9375
94.375
93.1875
92.625
92.6875
94.875
103.375
118.875
135.375
149.4375
162.4375
174.5625
184.3125
191.25
196.25
200.3125
204.0
207.3125
210.0
212.0625
213.3125
213.5
212.375
209.75
205.6875
199.9375
191.9375
181.1875
168.125
156.5625
150.1875
146.625
142.9375
139.375
136.3125
133.4375
130.4375
127.5
124.875
122.4375
119.9375
117.625
115.5
113.5625
111.6875
110.0
108.6875
107.625
106.5625
105.375
104.1875
103.0
101.9375
100.8125
99.5
97.875
96.3125
95.0625
94.4375
94.5625
97.6875
107.75
123.625
139.625
153.375
166.0625
177.1875
185.625
191.5625
196.125
199.875
203.1875
206.25
208.8125
210.625
211.5625
211.0625
209.125
205.875
201.125
194.4375
185.1875
173.125
159.875
150.3125
145.75
142.4375
138.4375
134.9375
132.1875
129.5
126.625
123.8125
121.1875
118.6875
116.3125
114.125
112.0625
110.25
108.625
107.375
106.25
105.0
103.6875
102.5
101.3125
100.1875
99.0625
97.5625
95.9375
94.5
93.625
93.25
94.0625
99.0
111.1875
127.4375
142.6875
156.125
168.625
179.3125
187.1875
192.875
197.125
200.75
204.0
206.9375
209.3125
210.9375
211.375
210.5625
208.375
204.625
199.0625
191.125
180.3125
167.3125
155.875
149.3125
145.5625
141.9375
138.3125
135.25
132.375
129.4375
126.375
123.625
121.125
118.625
116.1875
114.0
112.1875
110.6875
109.4375
108.25
107.0625
105.875
104.5625
103.375
102.25
100.75
99.0625
97.5
96.4375
95.9375
96.5
100.8125
112.3125
128.6875
144.25
157.75
170.4375
181.3125
189.4375
195.3125
199.6875
203.25
206.5
209.5
212.0
213.6875
214.1875
213.4375
211.25
207.5625
202.0
194.25
183.8125
171.0
158.8125
151.4375
147.6875
144.0625
140.3125
137.1875
134.375
131.375
128.375
125.5
122.875
120.5
118.125
115.875
113.9375
112.25
110.8125
109.625
108.5
107.375
106.1875
104.9375
103.8125
102.6875
101.25
99.625
98.125
97.0625
96.5
96.75
100.125
110.4375
126.6875
142.8125
156.6875
169.4375
180.4375
188.6875
194.4375
198.6875
202.0625
205.0625
207.75
210.0625
211.625
212.125
211.375
209.1875
205.5625
200.1875
192.5
182.1875
169.1875
156.625
149.0625
145.25
141.5
137.5
134.25
131.4375
128.5
125.25
121.625
118.1875
116.8125
115.9375
113.5
110.625
108.875
107.6875
106.25
104.6875
103.25
102.125
101.375
100.4375
99.3125
98.125
96.8125
95.3125
94.125
93.0625
92.25
92.1875
93.1875
97.875
110.0
126.875
142.5625
155.375
166.75
176.8125
184.5625
190.3125
194.875
198.1875
200.9375
203.8125
206.1875
207.5
207.5625
206.375
204.0
199.75
193.3125
184.1875
172.25
159.3125
149.8125
145.0625
141.625
137.4375
133.75
130.75
128.0
125.25
122.625
120.0
117.25
114.75
112.6875
111.0625
109.4375
107.6875
106.1875
104.3125
102.125
101.0625
100.6875
100.0
98.6875
97.375
96.0
94.625
93.0625
91.6875
91.0
90.875
91.5625
95.9375
107.9375
124.5625
140.0
153.0
164.8125
174.9375
182.6875
188.25
192.625
196.25
199.25
201.9375
204.0625
205.5
205.75
204.75
202.1875
198.125
192.0
183.1875
171.3125
158.3125
148.8125
143.875
140.375
136.75
133.5
130.6875
127.8125
124.875
122.1875
119.6875
117.25
115.0
112.8125
110.75
108.875
107.1875
105.625
104.3125
103.25
102.4375
101.5625
100.75
99.9375
99.0625
98.0625
97.0
95.75
94.5
93.3125
92.375
92.0625
93.0
98.125
110.875
128.125
144.0625
157.75
170.5
181.5
189.8125
195.8125
200.3125
204.1875
207.5625
210.375
212.75
214.375
214.875
214.125
212.125
208.75
203.5625
196.375
186.625
174.0
161.0
152.5
148.3125
144.75
140.8125
137.3125
134.25
131.0625
127.8125
124.6875
121.75
118.875
115.9375
113.1875
110.75
108.5
106.5
104.75
103.125
101.8125
100.8125
99.8125
98.75
97.625
96.375
95.1875
94.0
92.5625
90.9375
89.5625
88.5625
88.3125
89.0
92.9375
104.0625
120.4375
136.3125
149.9375
162.4375
173.3125
181.5
187.375
191.9375
195.6875
199.0
201.8125
204.0625
205.6875
206.375
205.875
204.0625
200.6875
195.5625
188.125
178.0625
165.25
152.5625
144.5625
140.8125
137.1875
133.125
129.75
127.125
124.5
121.6875
118.875
116.375
113.9375
111.625
109.375
107.3125
105.4375
103.75
102.25
101.0
99.875
98.8125
97.75
96.625
95.625
94.5625
93.3125
91.75
90.1875
89.0
88.3125
88.1875
89.1875
94.5625
107.625
124.375
139.375
152.3125
164.1875
174.0625
181.25
186.5625
190.75
194.125
197.0
199.4375
201.375
202.4375
202.4375
201.1875
198.5
194.125
187.625
178.25
165.875
153.1875
144.6875
140.4375
136.9375
133.125
129.8125
127.1875
124.4375
121.5625
118.8125
116.5
114.1875
111.875
109.6875
107.6875
105.9375
104.1875
102.6875
101.375
100.1875
99.0625
98.0
96.875
95.6875
94.625
93.5
92.125
90.625
89.3125
88.375
87.9375
88.125
91.125
101.0625
117.3125
133.5
146.8125
158.8125
169.625
178.0
184.1875
188.75
192.375
195.4375
198.125
200.1875
201.4375
201.9375
201.3125
199.1875
195.4375
189.9375
182.0625
171.125
158.1875
147.5
142.1875
139.0625
135.4375
132.0
129.3125
126.625
123.75
120.9375
118.3125
115.8125
113.375
111.125
109.0625
107.1875
105.4375
103.9375
102.6875
101.625
100.625
99.625
98.5625
97.5625
96.625
95.5625
94.1875
92.75
91.5
90.5
90.0
90.8125
96.3125
109.4375
126.375
141.875
155.5
168.125
178.8125
186.75
192.375
196.5
199.9375
203.1875
206.0625
208.375
209.9375
210.5625
209.875
207.8125
204.125
198.6875
191.1875
181.0
168.1875
156.0
148.6875
144.8125
141.3125
137.75
134.75
131.9375
129.0625
126.125
123.375
120.8125
118.3125
115.75
113.4375
111.5625
109.8125
108.1875
106.625
105.1875
103.9375
102.875
102.0
101.1875
100.3125
99.4375
98.5
97.5625
96.5625
95.25
93.9375
92.75
92.0
92.0
94.6875
104.25
120.6875
137.875
152.375
165.4375
177.125
186.0625
192.3125
196.8125
200.25
203.1875
205.625
207.625
209.0625
209.6875
209.0625
207.1875
204.0625
199.4375
192.8125
183.8125
171.875
158.5
148.625
143.5
139.75
135.75
132.125
129.125
126.25
123.25
120.3125
117.5625
115.0
112.5625
110.3125
108.25
106.375
104.6875
103.125
101.5625
100.125
98.9375
97.9375
97.0
96.0
94.875
93.625
92.6875
91.875
90.625
89.125
87.75
86.875
86.5
86.9375
90.4375
101.0625
117.5625
133.6875
147.1875
159.4375
170.3125
178.625
184.5625
189.25
193.125
196.375
199.125
201.375
202.875
203.4375
202.8125
200.875
197.4375
192.3125
184.9375
174.5625
161.625
149.8125
143.375
140.3125
136.8125
133.0
130.0
127.4375
124.5
121.75
119.3125
117.0625
114.875
112.6875
110.75
109.0
107.4375
105.9375
104.6875
103.5
102.4375
101.3125
100.1875
99.0
97.9375
96.9375
95.5
94.0625
92.8125
91.875
91.3125
91.1875
92.625
99.9375
115.0
132.0
145.5625
156.9375
167.5
176.3125
182.6875
187.4375
191.1875
194.3125
196.9375
199.0625
200.5
200.9375
200.25
198.25
194.75
189.375
181.5625
171.0625
158.6875
147.75
141.875
138.5625
134.5625
130.5
127.375
124.6875
121.9375
119.3125
117.0
114.9375
113.0625
111.0625
109.0
107.0
105.1875
103.5625
102.1875
101.1875
100.25
99.1875
98.0
96.9375
96.0
94.875
93.5625
92.0625
90.8125
90.0625
90.25
93.875
104.625
120.75
136.9375
150.625
163.375
174.875
183.75
189.9375
194.375
197.75
200.6875
203.375
205.5625
207.0625
207.5
206.8125
204.875
201.4375
196.3125
188.9375
178.75
166.0625
154.125
146.6875
142.6875
139.0625
135.5625
132.5625
129.75
126.875
123.8125
120.875
118.125
115.5625
113.125
110.875
108.8125
106.9375
105.25
103.6875
102.1875
100.75
99.5625
98.5
97.625
96.875
96.0
94.9375
93.9375
93.0625
92.0625
90.75
89.375
88.25
87.75
88.625
94.25
107.4375
124.5
140.125
153.9375
166.8125
177.875
186.125
191.875
196.125
199.5625
202.5625
205.1875
207.3125
208.75
209.125
208.4375
206.25
202.5
197.0
189.5
179.25
166.3125
154.125
146.6875
142.75
139.1875
135.5
132.5
129.75
126.8125
123.6875
120.6875
117.9375
115.3125
112.9375
110.6875
108.6875
106.9375
106.375
105.5
102.625
99.4375
95.9375
93.6875
94.6875
95.375
93.375
89.0625
86.1875
96.375
102.375
94.4375
87.3125
85.25
82.25
87.8125
94.875
103.75
116.9375
137.125
160.75
154.25
144.75
162.6875
188.0625
196.25
195.75
198.0625
202.125
205.875
208.875
209.6875
207.25
204.0
202.5
200.875
195.6875
187.25
176.5625
163.8125
151.3125
143.9375
142.9375
142.5
138.3125
131.6875
123.625
119.625
122.1875
121.5625
117.0
114.125
111.375
109.5
107.6875
106.0
104.125
103.0
103.8125
101.375
96.625
92.0625
90.25
92.875
95.5625
94.6875
92.25
90.375
89.125
87.6875
85.1875
82.625
81.75
82.875
84.3125
88.625
100.4375
117.5625
133.3125
146.5
159.3125
171.1875
179.8125
184.875
188.25
192.4375
196.4375
199.125
201.0625
201.625
201.0625
200.0625
199.75
197.9375
193.0625
187.375
178.5
163.6875
150.1875
142.125
137.8125
133.125
130.5625
130.5625
126.375
121.5
120.3125
119.125
115.375
111.0625
109.375
108.1875
105.1875
104.0625
103.3125
100.625
97.375
95.6875
96.0
96.4375
95.8125
94.375
93.0625
91.875
89.9375
88.875
88.0625
86.8125
84.25
83.375
88.8125
100.1875
114.8125
129.5625
142.5625
154.4375
167.8125
178.0
184.3125
188.75
192.0
193.0625
194.3125
200.375
206.0
204.625
200.6875
197.375
194.3125
191.5
187.5
174.9375
157.5625
146.4375
145.125
142.9375
137.5
133.0625
130.0625
127.875
124.9375
120.125
117.5
116.75
114.5625
111.6875
109.625
107.1875
103.9375
101.625
100.3125
99.25
98.0
97.0625
96.4375
95.8125
94.3125
92.5
92.9375
92.375
89.8125
88.5
88.0625
86.875
85.625
85.875
89.0625
98.4375
114.4375
131.375
146.25
158.9375
170.25
179.875
187.5625
193.25
197.1875
200.6875
203.9375
203.8125
203.9375
206.375
205.5
203.9375
200.9375
198.6875
196.625
190.25
177.75
162.1875
151.5625
146.625
142.0625
137.6875
134.25
129.375
124.3125
121.5625
120.625
119.0625
115.8125
113.0
111.0625
108.5625
105.5
103.3125
102.0
100.875
99.375
98.3125
97.8125
97.0625
96.0
94.75
93.9375
93.375
92.25
90.5
89.0
88.25
87.25
86.875
89.5625
98.8125
115.0625
132.875
148.0625
161.5
173.25
182.375
187.9375
192.4375
197.0625
200.6875
203.5
205.6875
207.3125
208.25
207.875
206.1875
203.0625
198.5
192.0
183.8125
173.125
160.0625
148.875
142.5625
138.875
135.5
132.25
129.25
126.375
123.3125
120.375
117.6875
115.0
112.3125
110.0
107.75
105.8125
103.9375
102.25
100.875
99.6875
98.6875
97.6875
96.875
95.875
94.5625
93.375
92.3125
91.4375
90.125
88.625
87.3125
86.875
88.5
95.9375
111.0
128.625
144.125
157.625
170.0625
180.3125
187.8125
192.9375
196.625
199.6875
202.3125
204.8125
206.5625
206.4375
206.625
209.75
207.0625
198.6875
192.875
187.5
176.5625
162.375
150.8125
144.625
140.75
136.375
132.625
130.0625
127.4375
124.0625
120.5625
117.5625
115.25
113.125
110.6875
108.25
106.25
104.4375
102.8125
101.4375
100.1875
99.1875
98.375
97.4375
96.1875
94.875
93.8125
92.8125
91.6875
90.5
89.0
87.8125
87.75
90.5
100.0
116.3125
133.6875
148.625
161.875
173.875
183.3125
189.6875
193.875
197.3125
200.5
203.4375
205.875
207.5625
208.5
208.1875
206.625
203.75
199.3125
192.875
183.9375
171.9375
158.25
147.75
142.3125
138.9375
135.1875
131.6875
128.875
126.0625
123.125
120.125
117.25
114.5
112.0
109.6875
107.5625
105.6875
103.9375
102.3125
100.9375
99.8125
98.875
97.9375
96.875
95.6875
94.5
93.625
92.5625
91.0
89.375
88.25
87.75
88.5
93.5625
106.625
124.4375
140.75
154.6875
167.5625
178.5625
186.625
192.0
196.0
199.4375
202.5
205.25
207.375
208.6875
208.75
207.6875
205.5625
202.0625
196.9375
189.5625
179.4375
166.3125
153.625
145.5
141.0625
137.3125
133.625
130.4375
127.5625
124.5625
121.5625
118.625
115.8125
113.375
111.125
109.0625
106.6875
104.375
102.75
101.3125
100.0625
99.0625
98.3125
97.5
96.375
95.125
93.8125
92.75
91.4375
90.0
88.6875
87.75
87.6875
90.4375
100.25
117.125
135.125
150.25
163.25
174.875
184.0625
190.3125
194.6875
198.1875
201.3125
204.0
206.1875
207.8125
208.4375
207.875
206.0625
202.8125
198.1875
191.6875
182.625
170.375
156.8125
146.5625
141.375
137.875
134.0625
130.5625
127.6875
124.9375
121.9375
118.8125
115.9375
113.4375
111.125
108.75
106.4375
104.375
102.75
101.25
99.875
98.875
97.875
96.875
95.75
94.4375
93.375
92.625
91.625
90.1875
88.625
87.375
86.75
87.625
93.25
107.0
125.125
141.4375
155.3125
168.0625
178.875
186.6875
191.9375
195.875
199.0
201.8125
204.25
206.375
207.5625
207.5625
206.375
204.0
200.25
194.75
187.0625
176.6875
163.5625
151.0
143.25
139.125
135.4375
131.5
128.25
125.5
122.625
119.625
116.6875
113.875
111.3125
109.0625
106.875
104.75
102.875
101.25
99.8125
98.5
97.4375
96.5
95.5625
94.5
93.3125
92.1875
91.0625
89.8125
88.4375
87.25
86.4375
86.1875
88.5625
98.125
114.9375
132.4375
147.25
160.6875
172.8125
182.25
188.6875
193.25
196.6875
199.5
202.0
204.125
205.625
206.25
205.6875
204.0625
201.125
196.5625
189.9375
180.75
168.6875
155.125
144.625
139.125
135.625
131.9375
128.5
125.625
122.8125
119.875
116.875
114.0625
111.4375
109.0
106.6875
104.625
102.6875
100.9375
99.25
97.8125
96.6875
95.75
94.8125
93.875
92.875
91.75
90.625
89.5625
88.4375
87.0625
85.75
84.75
84.4375
86.0
93.375
108.6875
126.875
142.5625
156.125
168.6875
178.875
186.0625
191.0625
194.75
197.875
200.5625
202.75
204.4375
205.3125
205.1875
203.6875
200.875
196.5625
190.5625
182.25
170.9375
157.375
145.6875
139.3125
135.6875
131.9375
128.1875
125.1875
122.5
119.625
116.625
113.6875
111.125
108.6875
106.4375
104.3125
102.3125
100.4375
98.75
97.3125
96.0625
94.9375
93.9375
93.0
92.1875
91.125
89.9375
88.9375
88.0
86.9375
85.5625
84.25
83.3125
83.3125
86.1875
96.0625
112.9375
130.625
145.3125
158.5
170.6875
180.125
186.5625
191.0625
194.5
197.4375
199.9375
202.0625
203.625
204.0625
203.375
201.5
198.375
193.625
187.0
177.8125
165.6875
152.375
142.375
137.0625
133.375
129.5625
126.1875
123.375
120.625
117.625
114.625
111.875
109.4375
107.0625
104.75
102.625
100.75
99.0625
97.4375
95.9375
94.75
93.875
93.0625
92.125
91.125
90.0
89.0
88.0
86.875
85.5
84.125
83.0
82.625
84.125
91.3125
106.4375
124.5
140.125
153.625
166.25
176.625
183.8125
188.75
192.375
195.3125
197.6875
199.875
201.5625
202.3125
201.9375
200.3125
197.625
193.625
187.8125
179.5625
168.0625
154.375
143.0625
136.9375
133.3125
129.5
125.875
122.9375
120.3125
117.4375
114.5
111.8125
109.375
106.875
104.5
102.375
100.4375
98.6875
97.0625
95.5
94.1875
93.3125
92.5625
91.6875
90.6875
89.625
88.5
87.5
86.625
85.5
84.0625
82.6875
81.875
82.25
85.75
96.75
114.0625
131.3125
145.6875
158.75
170.625
179.625
185.5625
189.75
193.0625
195.875
198.375
200.4375
201.8125
202.0625
201.0625
198.875
195.5
190.5625
183.625
173.75
161.0
148.0
139.375
134.875
131.125
127.3125
124.125
121.5
118.75
115.875
113.0
110.375
107.875
105.4375
103.125
101.125
99.375
97.6875
96.125
94.625
93.375
92.3125
91.5
90.6875
89.875
88.9375
88.0
87.0
85.9375
84.625
83.1875
82.0625
81.4375
81.8125
85.6875
97.0625
114.6875
131.6875
145.6875
158.6875
170.5
179.25
185.1875
189.5
192.8125
195.4375
197.8125
199.875
201.25
201.3125
200.125
197.9375
194.5625
189.6875
182.8125
173.25
160.5
147.5625
139.0
134.3125
130.6875
127.25
124.125
121.25
118.5625
115.625
112.5625
109.8125
107.4375
105.3125
103.0
100.875
99.125
97.5
95.9375
94.625
93.4375
92.3125
91.375
90.5625
89.75
88.75
87.5625
86.5
85.625
84.5625
83.375
82.125
81.25
81.375
84.8125
95.625
113.0
130.5
145.0
158.0625
169.6875
178.5625
184.625
188.875
192.25
195.0625
197.4375
199.375
200.8125
201.3125
200.3125
198.0
194.5625
189.625
182.75
173.1875
160.5
147.625
139.0
134.375
130.8125
127.125
123.875
121.0625
118.5
115.5
112.5625
110.125
107.875
105.5
103.0625
101.0
99.3125
97.6875
96.0
94.5
93.25
92.25
91.4375
90.625
89.75
88.8125
87.75
86.8125
85.9375
84.8125
83.5
82.25
81.4375
81.375
83.8125
93.125
109.625
127.1875
142.0625
155.25
167.375
177.0
183.625
188.125
191.625
194.4375
196.9375
199.1875
200.75
201.25
200.625
198.75
195.625
191.0625
184.5625
175.25
163.0625
150.0625
140.625
135.625
131.9375
128.1875
124.8125
122.0
119.3125
116.4375
113.5625
111.0
108.5
106.0625
103.8125
101.875
100.0
98.25
96.5625
95.125
93.8125
92.625
91.75
90.9375
90.0625
89.1875
88.1875
87.1875
86.3125
85.375
84.1875
82.875
81.75
81.3125
82.25
87.6875
101.0
118.8125
134.875
148.5625
161.5
172.8125
180.875
186.0625
189.9375
193.25
196.0
198.25
200.125
201.25
201.125
199.8125
197.375
193.75
188.4375
180.625
169.9375
156.9375
145.3125
138.5
134.4375
130.5625
126.875
123.75
120.9375
118.0625
115.25
112.6875
110.25
107.8125
105.4375
103.1875
101.1875
99.375
97.625
96.125
94.75
93.5
92.4375
91.625
90.9375
90.25
89.3125
88.25
87.25
86.25
85.125
83.75
82.4375
81.6875
81.75
84.1875
92.9375
109.125
126.75
141.625
154.9375
167.25
177.0625
183.625
188.125
191.75
194.875
197.3125
199.375
201.0625
201.75
201.3125
199.625
196.625
192.25
186.0625
177.1875
165.25
152.0
142.0
136.75
133.0625
129.25
125.8125
123.0625
120.4375
117.5
114.625
112.0
109.5625
107.125
104.8125
102.75
100.875
99.125
97.5
96.0
94.625
93.3125
92.25
91.375
90.625
89.875
89.0
87.9375
86.9375
86.1875
85.375
84.25
82.8125
81.6875
81.1875
81.875
86.4375
98.8125
116.4375
133.0
147.0625
160.0625
171.5625
180.125
185.875
190.0
193.375
196.1875
198.625
200.75
202.0625
202.3125
201.375
199.25
195.8125
190.875
183.75
173.75
160.875
148.25
140.1875
135.9375
132.3125
128.625
125.5
122.75
120.0
117.125
114.3125
111.625
109.125
106.8125
104.625
102.5
100.6875
99.0625
97.5
96.0
94.5625
93.3125
92.25
91.375
90.6875
89.875
89.0
87.9375
87.0
86.3125
85.375
84.0625
82.75
81.75
81.25
82.125
87.1875
100.0
117.625
133.9375
147.8125
160.75
172.125
180.4375
186.0625
190.25
193.75
196.8125
199.3125
201.1875
202.3125
202.5
201.5625
199.4375
195.875
190.8125
183.6875
173.5625
160.625
148.0
140.125
136.0
132.4375
128.8125
125.75
123.0
120.1875
117.375
114.5625
111.8125
109.375
107.0625
104.875
102.875
101.0
99.4375
97.9375
96.375
94.875
93.5625
92.4375
91.5
90.8125
90.1875
89.375
88.4375
87.4375
86.5625
85.75
84.625
83.25
82.0625
81.5625
82.0625
86.0
97.4375
114.625
131.375
145.625
158.75
170.4375
179.25
185.25
189.625
193.1875
196.1875
198.8125
201.25
202.8125
203.25
202.5
200.5625
197.375
192.8125
186.25
176.9375
164.5625
151.4375
142.3125
137.625
134.0
130.1875
126.875
124.1875
121.4375
118.5625
115.6875
113.0
110.625
108.4375
106.0625
103.75
101.8125
100.125
98.625
97.25
95.8125
94.5
93.3125
92.375
91.5625
90.75
89.9375
89.0625
88.125
87.25
86.4375
85.3125
83.875
82.625
82.0625
82.25
85.0
94.4375
110.8125
128.1875
142.875
156.25
168.375
177.875
184.375
189.0
192.8125
196.125
198.8125
201.125
202.875
203.75
203.5
202.0
199.1875
194.9375
188.8125
180.3125
168.75
155.5
145.0
139.3125
135.6875
131.9375
128.375
125.4375
122.8125
120.0625
117.25
114.5
111.9375
109.4375
106.9375
104.75
102.875
101.1875
99.625
98.0625
96.6875
95.375
94.125
92.9375
92.0
91.25
90.4375
89.625
88.8125
88.0
87.1875
86.125
84.9375
83.8125
82.9375
82.5625
83.4375
88.6875
101.5625
119.0625
135.3125
149.1875
162.0
173.125
181.4375
187.3125
191.6875
195.125
198.0625
200.5625
202.625
204.0
204.3125
203.5
201.375
198.125
193.3125
186.375
176.5625
163.875
151.0625
142.6875
138.4375
134.9375
131.0625
127.8125
125.125
122.375
119.375
116.4375
113.875
111.4375
109.0
106.75
104.8125
102.9375
101.125
99.4375
97.875
96.625
95.375
94.1875
93.0
92.125
91.5
90.8125
89.9375
88.875
87.9375
87.1875
86.3125
85.125
83.6875
82.75
82.6875
84.375
91.1875
105.4375
122.625
138.0
151.9375
164.875
175.5
182.9375
188.25
192.5625
195.9375
198.8125
201.5625
203.75
205.0625
205.125
204.0
201.8125
198.3125
193.125
185.6875
175.3125
162.25
150.0
142.5625
138.6875
135.0
131.25
128.1875
125.4375
122.5
119.3125
116.4375
113.9375
111.5625
109.1875
106.8125
104.875
103.125
101.5
100.0
98.5
97.0625
95.625
94.3125
93.3125
92.625
92.0
91.125
90.0625
89.0
88.25
87.5625
86.5625
85.1875
84.0
83.3125
83.6875
87.1875
98.0
114.9375
131.75
146.0
159.0625
170.8125
179.9375
186.25
190.875
194.5625
197.5625
200.1875
202.875
204.875
205.8125
205.3125
203.5625
200.5625
196.0625
189.875
181.1875
169.5625
156.4375
146.1875
140.6875
137.0625
133.375
129.8125
126.875
124.1875
121.25
118.25
115.5625
113.125
110.6875
108.3125
106.0
104.0625
102.375
100.875
99.4375
97.9375
96.5625
95.1875
94.0
93.0625
92.3125
91.6875
90.875
89.9375
89.0
88.25
87.375
86.1875
84.875
83.6875
83.125
83.625
87.9375
99.875
117.125
133.625
147.625
160.6875
172.3125
181.125
187.1875
191.6875
195.375
198.5625
201.3125
203.75
205.5
206.0625
205.5
203.8125
200.8125
196.25
189.75
180.75
168.875
155.6875
145.6875
140.375
136.75
133.0625
129.875
127.1875
124.4375
121.3125
118.25
115.625
113.125
110.6875
108.3125
106.25
104.375
102.6875
101.0625
99.4375
97.75
96.375
95.25
94.4375
93.75
93.0625
92.1875
91.25
90.1875
89.125
88.125
87.0625
85.875
84.6875
83.9375
83.9375
86.4375
95.375
111.3125
128.5
143.25
156.625
168.8125
178.5
185.3125
190.25
194.1875
197.5625
200.5
202.9375
204.9375
206.0625
206.0625
204.8125
202.125
198.1875
192.375
184.1875
172.9375
159.5
147.875
141.4375
137.9375
134.3125
130.625
127.625
124.8125
122.0
119.125
116.3125
113.5625
110.9375
108.5
106.3125
104.3125
102.4375
100.8125
99.375
97.9375
96.5
95.125
94.0
93.125
92.375
91.625
90.75
89.625
88.4375
87.625
86.8125
85.625
84.25
83.125
82.625
83.1875
87.0625
98.25
115.3125
132.0625
146.375
159.25
170.5625
179.25
185.25
189.6875
193.5
196.875
199.875
202.375
204.1875
204.75
204.125
202.5
199.5625
195.1875
188.625
179.375
167.25
154.125
144.6875
140.0
136.5
132.625
129.25
126.4375
123.625
120.6875
117.75
114.9375
112.4375
110.1875
108.0
105.875
104.0
102.25
100.625
99.125
97.75
96.375
95.25
94.5
93.625
92.5
91.25
90.25
89.4375
88.4375
87.0
85.75
84.8125
84.3125
84.375
87.4375
97.5625
113.9375
130.5625
144.6875
157.4375
168.6875
177.4375
183.6875
188.4375
192.1875
195.375
198.1875
200.5
202.125
202.75
202.125
200.375
197.4375
193.0
186.5
177.1875
164.875
152.0
143.25
138.875
135.1875
131.25
127.9375
125.25
122.5
119.625
116.875
114.375
111.875
109.625
107.5
105.5
103.6875
101.875
100.1875
98.75
97.5625
96.5625
95.5625
94.5
93.4375
92.375
91.5
90.4375
88.875
87.4375
86.25
85.5
85.375
86.625
93.1875
107.5
125.0625
140.5
153.8125
166.0
175.875
182.9375
188.0625
192.125
195.5
198.3125
200.75
202.625
203.625
203.5625
202.375
199.8125
195.5625
189.3125
180.4375
168.4375
155.5
146.125
141.0
137.1875
133.375
130.0
127.4375
124.8125
121.8125
118.75
115.875
113.375
111.0625
108.75
106.5625
104.6875
103.0625
101.4375
99.875
98.5625
97.4375
96.5625
95.75
94.875
93.9375
92.9375
92.0
91.0
89.6875
88.3125
87.125
86.3125
86.125
88.0
95.875
111.3125
128.875
144.0625
157.5625
170.0
180.0625
187.25
192.3125
196.375
199.875
202.8125
205.375
207.5625
209.0
209.1875
208.0625
205.5625
201.6875
196.1875
188.625
178.3125
165.1875
152.875
145.5
141.625
138.0
134.1875
131.0
128.3125
125.4375
122.375
119.375
116.625
114.125
111.6875
109.25
107.0625
105.125
103.4375
101.9375
100.625
99.5
98.5
97.4375
96.375
95.1875
93.875
92.625
91.4375
90.0625
88.375
86.9375
85.9375
85.8125
87.5625
94.875
109.375
126.4375
141.625
154.9375
167.25
177.3125
184.375
189.4375
193.4375
196.9375
200.0
202.6875
204.75
205.9375
206.0625
204.9375
202.625
198.8125
193.1875
185.375
174.6875
161.375
149.125
142.3125
138.875
135.0625
131.0625
128.0
125.3125
122.5625
119.75
117.0
114.375
111.875
109.5
107.25
105.125
103.25
101.6875
100.4375
99.3125
98.375
97.3125
96.125
94.8125
93.5625
92.5
91.3125
89.8125
88.3125
87.1875
86.5625
86.5625
89.0
98.125
114.125
131.0625
145.25
157.6875
168.75
177.4375
183.75
188.5625
192.3125
195.3125
197.875
200.0625
201.6875
202.375
201.8125
199.875
196.5
191.5625
184.125
173.75
160.8125
149.0
141.9375
138.125
134.3125
130.4375
127.375
124.875
122.1875
119.375
116.625
114.0
111.5625
109.3125
107.125
105.125
103.375
101.875
100.4375
99.4375
98.4375
97.3125
96.0625
94.75
93.6875
92.6875
91.3125
89.6875
88.25
87.25
86.625
86.75
89.8125
100.125
116.875
133.5625
147.3125
159.5625
170.4375
178.75
184.6875
189.0625
192.625
195.5625
198.125
200.125
201.1875
201.25
200.375
198.375
194.8125
189.4375
181.4375
170.25
156.9375
146.125
140.6875
137.375
133.6875
130.25
127.4375
124.625
121.625
118.6875
116.1875
113.8125
111.4375
109.1875
106.9375
105.0
103.25
101.75
100.375
99.25
98.25
97.25
96.125
94.9375
93.9375
93.0625
92.0
90.5625
89.0625
87.8125
87.25
87.8125
92.375
104.625
121.9375
138.25
152.1875
165.0625
176.1875
184.4375
190.3125
194.6875
198.375
201.625
204.3125
206.375
207.875
208.5
207.9375
205.8125
202.3125
197.375
190.5
180.875
168.375
155.5
146.8125
142.25
138.6875
135.0
131.6875
128.8125
125.9375
122.875
119.875
117.125
114.6875
112.375
110.0625
107.9375
106.125
104.375
102.75
101.375
100.25
99.3125
98.375
97.4375
96.5
95.5
94.5
93.375
92.0
90.5625
89.3125
88.5625
88.625
91.9375
102.5
119.625
136.8125
151.125
164.1875
175.9375
184.9375
191.25
195.75
199.4375
202.5625
205.25
207.6875
209.4375
210.0
209.3125
207.375
203.9375
199.0
192.5
183.5
171.1875
157.3125
147.0625
141.9375
138.375
134.4375
130.9375
127.875
124.875
121.6875
118.6875
115.75
113.1875
110.6875
108.1875
105.875
104.0
102.5
101.0
99.6875
98.4375
97.3125
96.25
95.1875
94.0625
92.875
91.75
90.5
88.9375
87.5
86.4375
85.8125
85.875
88.9375
99.0
115.4375
132.125
146.25
159.0
170.3125
178.9375
185.0625
189.625
193.375
196.625
199.375
201.75
203.3125
203.9375
203.1875
201.3125
198.1875
193.5
186.4375
176.375
163.5
150.8125
142.875
139.0625
135.6875
131.75
128.5
125.8125
123.0
120.0
117.125
114.5
112.0
109.75
107.5
105.4375
103.6875
102.1875
100.8125
99.5625
98.375
97.375
96.25
95.0
93.75
92.5625
91.1875
89.6875
88.3125
87.3125
86.75
87.1875
91.5
103.6875
121.0625
137.375
150.8125
163.0
173.5
181.4375
187.0
191.1875
194.6875
197.8125
200.375
202.375
203.5625
203.6875
202.75
200.5625
196.875
191.125
182.8125
171.4375
158.0625
147.375
141.5
137.8125
134.125
130.75
127.8125
125.0
122.0
119.0
116.3125
113.75
111.25
108.75
106.5
104.5
102.75
101.25
100.0
98.75
97.75
96.75
95.6875
94.625
93.625
92.625
91.5625
90.25
88.8125
87.5
86.625
86.625
89.75
99.9375
116.625
133.75
148.25
161.375
173.3125
182.6875
189.0
193.4375
197.0
200.1875
203.0
205.375
207.25
208.1875
207.75
205.875
202.8125
198.25
191.625
182.4375
170.4375
157.0625
147.0625
141.9375
138.4375
134.5
131.0
128.1875
125.4375
122.5
119.5
116.5
113.75
111.1875
108.75
106.5625
104.5625
102.6875
100.9375
99.375
98.0625
96.875
95.75
94.625
93.5
92.3125
91.125
89.875
88.5625
87.0625
85.5625
84.5625
84.25
85.9375
93.5
108.5
125.875
141.0625
154.4375
166.5625
176.375
183.25
188.125
192.0
195.4375
198.4375
201.0
202.75
203.6875
203.5625
202.125
199.4375
195.25
189.125
180.5
168.8125
155.25
144.4375
139.125
135.8125
132.0625
128.375
125.5625
122.9375
120.0625
117.125
114.375
111.75
109.25
107.0
104.9375
102.9375
101.1875
99.6875
98.4375
97.4375
96.4375
95.25
93.9375
92.8125
91.8125
90.75
89.25
87.625
86.25
85.5
85.4375
87.25
94.9375
110.1875
127.5625
142.4375
155.25
166.75
175.9375
182.4375
187.125
190.75
193.8125
196.5
198.6875
200.25
200.875
200.375
198.625
195.5625
190.8125
183.9375
174.0
161.1875
148.625
141.0
137.25
133.75
130.0
126.75
124.0
121.125
118.1875
115.375
112.75
110.25
107.8125
105.5
103.5
101.6875
100.125
98.625
97.3125
96.3125
95.4375
94.5
93.4375
92.3125
91.3125
90.375
89.125
87.5625
86.1875
85.1875
84.9375
86.875
95.125
110.6875
128.25
143.3125
156.6875
168.9375
178.75
185.625
190.375
194.1875
197.5625
200.375
202.8125
204.6875
205.5625
205.25
203.6875
200.9375
196.5625
190.25
181.4375
169.6875
156.4375
146.125
140.5625
136.875
133.25
129.8125
127.0
124.375
121.4375
118.375
115.375
112.625
110.1875
107.875
105.6875
103.6875
101.9375
100.3125
98.8125
97.6875
96.6875
95.8125
94.9375
93.9375
92.875
91.8125
90.75
89.4375
88.0
86.6875
85.6875
85.375
87.375
95.875
111.8125
129.375
144.25
157.25
169.0625
178.5625
185.25
189.8125
193.25
196.1875
198.6875
200.8125
202.4375
203.3125
203.0
201.375
198.4375
194.0625
187.6875
178.75
166.9375
153.5625
143.375
138.3125
134.9375
131.0625
127.4375
124.375
121.5625
118.625
115.6875
112.9375
110.375
107.8125
105.4375
103.375
101.5
99.8125
98.25
96.875
95.75
94.75
93.8125
92.6875
91.375
90.1875
89.375
88.375
86.9375
85.375
84.0625
83.3125
83.375
85.875
95.0625
111.25
128.5625
143.125
155.875
167.375
176.3125
182.5
187.0625
190.6875
193.8125
196.5
198.6875
200.0625
200.375
199.5625
197.6875
194.5
189.75
182.75
172.75
159.6875
147.0625
139.6875
136.1875
132.75
128.9375
125.6875
122.9375
120.0
116.9375
114.125
111.625
109.3125
107.0
104.8125
102.875
101.125
99.375
98.0
96.8125
95.75
94.6875
93.625
92.5
91.375
90.4375
89.4375
88.0
86.5
85.3125
84.625
85.0625
89.375
101.3125
118.5
134.9375
148.9375
161.8125
172.9375
181.25
186.875
191.0625
194.4375
197.25
199.75
201.75
203.125
203.4375
202.4375
200.0625
196.5
191.3125
183.6875
172.875
159.625
147.6875
140.625
136.5625
132.875
129.1875
126.125
123.375
120.5625
117.625
114.8125
112.1875
109.6875
107.1875
104.9375
102.8125
100.9375
99.375
97.9375
96.4375
95.125
94.25
93.5
92.8125
91.8125
90.625
89.375
88.375
87.3125
86.0625
84.875
83.9375
83.8125
86.5
96.0625
112.75
130.375
145.3125
158.6875
170.8125
180.25
186.5625
191.0
194.5625
197.6875
200.5625
202.9375
204.6875
205.4375
205.0
203.25
200.0
195.3125
188.9375
180.125
168.25
154.6875
144.125
138.625
135.0625
131.3125
127.8125
124.6875
121.75
118.625
115.5
112.625
110.0
107.5
105.0625
102.875
100.875
99.0
97.5
96.25
95.25
94.25
93.125
91.9375
90.6875
89.625
88.75
87.625
86.125
84.5
83.1875
82.75
83.8125
89.4375
102.875
120.375
136.25
149.8125
162.375
173.1875
180.875
186.0625
189.75
192.8125
195.8125
198.5
200.5625
201.625
201.375
199.875
197.375
193.75
188.5625
180.75
169.5625
155.875
144.0625
137.6875
134.5
131.0
127.25
124.0625
121.25
118.3125
115.3125
112.6875
110.125
107.5
105.0
102.875
101.1875
99.625
98.0625
96.75
95.625
94.625
93.6875
92.4375
91.25
90.1875
89.0625
87.5625
85.9375
84.6875
83.9375
83.9375
86.4375
95.875
112.375
130.0
144.8125
157.875
169.5625
178.5625
184.6875
189.0625
192.4375
195.3125
197.875
200.0625
201.5625
202.0
201.375
199.4375
196.125
191.1875
184.0
173.8125
160.8125
148.1875
140.375
136.125
132.3125
128.625
125.625
122.875
120.0
116.9375
113.9375
111.1875
108.6875
106.3125
104.125
102.0625
100.1875
98.375
96.75
95.5
94.5625
93.6875
92.875
91.8125
90.5625
89.5625
88.5
87.25
85.875
84.6875
83.8125
83.5
85.1875
92.9375
108.5625
126.75
142.375
155.8125
168.0625
178.0625
185.125
189.9375
193.5
196.5
199.1875
201.5
203.25
204.125
203.8125
202.1875
199.3125
195.0625
188.9375
180.5
169.125
155.6875
144.5625
138.4375
135.0
131.5
127.75
125.0
123.125
119.125
115.0
112.1875
110.0
107.75
105.3125
103.1875
101.625
100.4375
99.25
97.25
95.125
92.3125
90.0625
91.5
92.1875
90.375
88.4375
87.125
85.8125
83.9375
82.3125
82.375
85.5625
95.625
112.75
131.0
146.5625
158.625
169.25
178.9375
185.9375
190.25
193.25
196.125
198.875
201.25
202.9375
203.4375
202.625
200.625
197.4375
192.875
186.5
177.25
164.8125
151.5
141.9375
136.9375
133.1875
129.3125
125.875
123.0
120.1875
117.25
114.3125
111.5625
109.0
106.5
104.25
102.0625
100.0625
98.3125
96.8125
95.5
94.4375
93.5
92.625
91.75
90.625
89.4375
88.4375
87.3125
86.0
84.5
83.1875
82.625
83.75
90.3125
104.9375
123.25
139.375
152.875
165.4375
176.0
183.5
188.375
192.0625
195.0625
197.6875
200.0
201.875
203.0
202.8125
201.25
198.4375
194.375
188.5625
180.375
169.0625
155.5625
144.125
137.8125
133.9375
130.125
126.4375
123.5
120.8125
117.9375
114.875
111.8125
109.125
106.625
104.3125
102.1875
100.25
98.5
96.8125
95.375
94.1875
93.25
92.3125
91.375
90.3125
89.25
88.25
87.25
86.0
84.5625
83.125
82.125
81.9375
84.375
93.5625
110.0625
127.9375
143.0
156.375
168.625
178.25
184.6875
188.9375
192.3125
195.1875
197.6875
199.9375
201.4375
201.8125
201.1875
199.375
196.1875
191.4375
184.8125
175.5625
163.125
149.75
140.1875
135.1875
131.5
127.625
124.3125
121.625
118.875
115.875
112.9375
110.125
107.5625
105.125
102.8125
100.6875
98.8125
97.125
95.5625
94.125
93.0
92.1875
91.3125
90.375
89.25
88.125
87.125
86.1875
85.0
83.5
82.0625
81.125
81.1875
83.8125
93.0625
109.625
127.5625
142.6875
155.9375
168.0
177.625
184.0625
188.375
191.6875
194.5
196.9375
198.9375
200.5
201.1875
200.6875
198.75
195.5
190.6875
183.875
174.4375
161.9375
148.5
139.0
134.1875
130.625
126.875
123.5625
120.8125
118.125
115.125
112.125
109.375
106.8125
104.4375
102.25
100.3125
98.4375
96.625
94.875
93.4375
92.25
91.3125
90.5
89.6875
88.6875
87.5
86.4375
85.5625
84.5625
83.25
81.8125
80.5625
80.125
81.625
88.5
103.375
121.6875
137.625
151.1875
163.6875
174.1875
181.5
186.25
189.8125
192.875
195.4375
197.5
199.0
199.75
199.375
197.875
195.125
191.0
185.125
176.6875
165.125
151.5625
140.5625
134.5625
130.8125
127.125
123.625
120.75
118.0
115.125
112.125
109.4375
106.9375
104.5
102.25
100.1875
98.1875
96.375
94.75
93.3125
92.125
91.1875
90.3125
89.4375
88.4375
87.3125
86.25
85.375
84.4375
83.1875
81.6875
80.375
79.875
80.8125
86.5
100.3125
118.5625
135.0
148.75
161.4375
172.3125
180.1875
185.3125
189.0
192.0625
194.5625
196.625
198.25
199.125
198.9375
197.375
194.75
190.875
185.1875
177.0625
165.8125
152.375
140.8125
134.375
130.6875
127.0
123.4375
120.4375
117.8125
114.9375
111.9375
109.25
106.75
104.4375
101.9375
99.75
97.8125
96.0625
94.4375
92.9375
91.6875
90.6875
89.75
88.875
88.0625
87.0
85.9375
84.9375
84.125
83.0
81.625
80.25
79.3125
79.375
82.4375
92.5
109.5
127.1875
141.9375
155.1875
167.3125
176.5625
182.75
186.9375
190.1875
192.875
195.1875
197.1875
198.5625
198.8125
197.75
195.625
192.25
187.375
180.375
170.5625
157.8125
144.8125
136.25
131.875
128.3125
124.5
121.25
118.625
116.0625
113.1875
110.1875
107.5
105.0625
102.6875
100.4375
98.4375
96.625
94.9375
93.4375
92.0625
90.9375
90.0625
89.25
88.375
87.375
86.25
85.3125
84.4375
83.375
81.9375
80.5
79.4375
79.4375
82.125
91.6875
108.4375
126.3125
141.3125
154.5
166.5625
175.875
182.0
186.1875
189.5
192.25
194.5625
196.4375
197.6875
198.0
197.125
195.125
191.8125
187.0
180.125
170.5
157.875
144.9375
136.375
131.8125
128.25
124.5
121.25
118.4375
115.6875
112.8125
109.9375
107.375
105.125
102.875
100.5
98.375
96.4375
94.6875
93.125
91.75
90.6875
89.875
89.0625
88.3125
87.375
86.25
85.1875
84.25
83.25
82.0
80.625
79.5
79.0
80.4375
87.3125
102.125
120.375
136.3125
149.875
162.3125
172.8125
180.125
184.9375
188.4375
191.3125
193.75
195.875
197.4375
198.125
197.75
196.0
192.875
188.5
182.4375
173.8125
162.0
148.5625
138.1875
132.75
129.1875
125.5
122.125
119.5
116.8125
113.875
110.8125
108.0625
105.6875
103.4375
101.1875
99.0625
97.125
95.4375
93.875
92.375
90.9375
89.8125
89.0
88.375
87.5
86.5
85.4375
84.5
83.75
82.8125
81.4375
80.0
78.875
78.625
80.3125
87.875
103.25
121.4375
137.125
150.625
163.0625
173.3125
180.375
185.0625
188.5
191.3125
193.8125
195.8125
197.3125
197.9375
197.375
195.6875
192.875
188.5
182.1875
173.25
161.25
148.0
138.125
132.9375
129.25
125.4375
122.0625
119.375
116.75
113.875
111.0
108.25
105.75
103.5
101.3125
99.25
97.25
95.5
93.9375
92.5
91.25
90.25
89.5
88.6875
87.8125
86.75
85.75
84.9375
83.9375
82.6875
81.125
79.875
79.25
80.0
84.8125
97.4375
115.25
131.9375
146.0
158.875
170.0625
178.125
183.375
187.0625
190.125
192.8125
195.125
196.9375
197.75
197.625
196.25
193.625
189.75
184.25
176.4375
165.5
152.3125
140.9375
134.5
130.5625
126.75
123.1875
120.3125
117.6875
114.875
111.9375
109.125
106.625
104.1875
101.875
99.8125
97.9375
96.1875
94.5
92.875
91.5
90.375
89.4375
88.75
87.9375
87.0625
85.9375
84.9375
84.125
83.3125
82.125
80.6875
79.375
78.75
79.25
83.5625
95.5625
113.375
130.4375
144.6875
157.5625
168.9375
177.4375
183.0
186.9375
190.125
192.6875
194.9375
196.75
197.9375
198.0625
196.9375
194.5625
190.875
185.6875
178.1875
167.8125
154.75
142.75
135.5625
131.5
127.75
124.125
121.125
118.4375
115.6875
112.8125
109.9375
107.375
105.0
102.75
100.5625
98.5625
96.8125
95.0625
93.5625
92.125
91.0
90.0625
89.25
88.375
87.4375
86.375
85.375
84.625
83.6875
82.375
80.9375
79.75
79.3125
80.4375
86.4375
100.375
118.4375
134.625
148.25
160.875
171.625
179.1875
184.1875
187.8125
190.8125
193.4375
195.5625
197.25
198.25
198.125
196.625
194.0
190.0625
184.3125
176.0
164.625
151.25
140.375
134.5
130.6875
126.8125
123.25
120.4375
117.8125
114.9375
112.0
109.375
106.875
104.5625
102.375
100.3125
98.3125
96.5
94.875
93.375
91.875
90.625
89.6875
88.9375
88.1875
87.3125
86.25
85.25
84.375
83.5625
82.5
81.0625
79.875
79.125
79.4375
83.0
93.875
111.25
128.625
143.0
156.0
167.8125
176.6875
182.625
186.6875
189.9375
192.8125
195.3125
197.25
198.4375
198.5625
197.625
195.5625
192.1875
187.125
180.0625
170.125
157.3125
144.6875
136.625
132.4375
128.8125
125.125
122.0625
119.4375
116.6875
113.75
110.9375
108.4375
106.0
103.625
101.4375
99.4375
97.625
95.875
94.375
92.9375
91.625
90.5
89.5625
88.75
88.0625
87.1875
86.125
85.125
84.3125
83.4375
82.25
80.875
79.6875
79.1875
80.125
85.6875
99.1875
117.25
133.5625
147.375
160.1875
171.375
179.3125
184.4375
188.1875
191.3125
193.9375
196.1875
198.0
199.125
199.0625
197.6875
195.0625
191.25
185.75
177.9375
167.0
153.8125
142.4375
136.0
132.0625
128.25
124.6875
121.6875
119.0
116.125
113.1875
110.375
107.6875
105.25
103.0
100.8125
98.8125
97.0625
95.5
93.9375
92.5
91.1875
90.0625
89.1875
88.375
87.625
86.625
85.625
84.6875
83.875
82.8125
81.5
80.1875
79.25
79.0625
80.6875
88.0625
103.125
120.9375
136.4375
149.8125
162.0625
172.0625
179.0
183.75
187.375
190.5
193.0625
195.25
196.8125
197.5625
197.1875
195.625
192.8125
188.6875
182.625
173.9375
162.0
148.875
139.3125
134.4375
130.875
127.125
123.6875
120.9375
118.25
115.3125
112.375
109.75
107.3125
104.9375
102.6875
100.5625
98.75
97.0
95.5
94.0
92.6875
91.625
90.75
89.9375
89.0
87.9375
86.8125
85.875
85.0
83.75
82.25
80.9375
80.1875
80.25
82.8125
91.9375
108.1875
125.6875
140.375
153.125
164.625
173.625
179.75
184.1875
187.6875
190.6875
193.1875
195.1875
196.625
197.125
196.4375
194.5
191.25
186.4375
179.5625
169.8125
157.0
144.75
137.375
133.375
129.625
125.875
122.75
120.0625
117.1875
114.3125
111.6875
109.25
106.9375
104.6875
102.625
100.75
99.0
97.25
95.75
94.5
93.3125
92.375
91.625
90.6875
89.5625
88.4375
87.5625
86.6875
85.5625
84.0625
82.875
82.0
81.9375
84.625
94.0
110.3125
127.6875
142.4375
155.5625
167.4375
176.75
183.1875
187.6875
191.1875
194.0625
196.5625
198.625
200.0
200.5
200.0
198.25
195.125
190.5625
184.125
174.875
162.625
149.8125
141.0
136.1875
132.375
128.625
125.375
122.6875
120.0
117.125
114.25
111.5
108.9375
106.4375
104.1875
102.1875
100.3125
98.625
97.125
95.625
94.3125
93.1875
92.4375
91.75
91.0
90.0
88.875
88.0
87.125
85.9375
84.5625
83.25
82.4375
82.5625
85.625
95.625
112.375
129.875
144.6875
157.9375
169.8125
178.9375
185.3125
189.8125
193.4375
196.5
199.1875
201.4375
203.125
203.75
203.125
201.375
198.4375
194.0
187.5
178.5
166.5625
153.25
143.0
137.5625
133.875
130.125
126.6875
123.75
120.9375
118.0
114.9375
112.125
109.4375
106.9375
104.5
102.375
100.5
98.8125
97.1875
95.625
94.25
93.0625
92.1875
91.375
90.5
89.375
88.3125
87.3125
86.5
85.375
84.0
82.625
81.625
81.25
82.3125
88.25
102.0
119.6875
135.5625
149.1875
161.6875
172.125
179.5625
184.75
188.75
192.125
195.0
197.4375
199.3125
200.5
200.5625
199.1875
196.5625
192.75
187.4375
179.75
168.8125
155.5
143.6875
137.125
133.75
130.125
126.3125
123.25
120.5625
117.75
114.9375
112.3125
109.8125
107.375
105.0625
102.9375
101.0
99.125
97.5
96.125
94.9375
93.875
92.875
91.8125
90.75
89.6875
88.75
87.8125
86.5625
84.9375
83.4375
82.375
81.875
82.125
85.375
95.8125
112.75
129.75
143.8125
156.375
167.3125
175.5
181.1875
185.4375
188.8125
191.8125
194.25
196.0625
197.25
197.5625
196.625
194.375
190.625
185.25
177.5625
166.75
153.5625
142.3125
136.3125
132.8125
128.9375
125.3125
122.4375
119.8125
117.0
114.25
111.75
109.375
107.125
104.8125
102.625
100.75
99.0625
97.4375
95.9375
94.75
93.8125
92.9375
91.9375
90.8125
89.6875
88.9375
88.0625
86.8125
85.4375
84.125
83.25
83.0
84.375
91.0
105.125
122.625
138.25
151.75
164.0625
174.0625
181.25
186.1875
189.75
192.75
195.4375
197.6875
199.3125
200.0625
199.75
198.1875
195.25
190.875
184.4375
175.3125
163.0625
150.125
141.4375
136.9375
133.25
129.5
126.3125
123.5
120.625
117.75
115.0625
112.5625
109.9375
107.4375
105.125
103.3125
101.5625
99.8125
98.1875
96.8125
95.625
94.5625
93.6875
92.8125
91.9375
91.0625
90.0625
89.1875
88.3125
87.25
85.9375
84.5625
83.5
83.25
85.1875
93.0
108.625
126.6875
142.25
155.6875
168.0625
178.375
185.5625
190.5
194.1875
197.4375
200.4375
202.9375
204.875
205.9375
205.875
204.625
202.0
198.0
192.25
184.375
173.9375
160.8125
148.5
141.0
137.0
133.25
129.4375
126.1875
123.125
120.0
116.8125
113.875
111.3125
108.8125
106.3125
103.875
101.6875
99.75
97.9375
96.3125
94.875
93.625
92.5625
91.5625
90.8125
89.9375
88.875
87.8125
86.75
85.6875
84.25
82.9375
81.8125
81.25
81.6875
85.375
96.3125
113.3125
130.25
144.375
157.1875
168.625
177.25
183.25
187.625
191.125
194.125
196.8125
199.0
200.5625
201.0625
200.25
198.25
195.1875
190.5625
183.8125
174.375
161.875
148.75
139.625
135.3125
131.8125
127.8125
124.3125
121.625
119.0
116.125
113.375
110.8125
108.3125
105.875
103.625
101.625
99.875
98.25
96.75
95.375
94.125
93.0625
92.125
91.0625
89.875
88.8125
87.9375
86.75
85.1875
83.6875
82.625
82.0625
82.0625
84.75
94.4375
111.0
128.125
142.375
154.8125
165.9375
174.4375
180.4375
184.75
188.1875
191.125
193.6875
195.8125
197.0625
197.3125
196.4375
194.4375
191.125
186.125
178.875
168.5625
155.625
143.8125
137.0625
133.5
129.875
126.1875
123.1875
120.5
117.75
115.0
112.375
109.9375
107.5625
105.25
103.0625
101.0625
99.3125
97.8125
96.4375
95.3125
94.375
93.5625
92.625
91.5
90.375
89.375
88.3125
87.0
85.5
84.25
83.625
84.0625
88.1875
100.0
117.3125
134.0
148.1875
161.125
172.3125
180.6875
186.5
190.875
194.375
197.375
200.0
202.25
203.625
204.0
203.1875
201.1875
197.875
192.9375
185.875
176.1875
163.75
151.125
142.625
138.0625
134.375
130.625
127.375
124.6875
121.875
118.875
115.9375
113.25
110.6875
108.25
106.0
104.0
102.25
100.625
99.125
97.6875
96.625
95.75
94.875
93.9375
92.875
91.75
90.75
89.6875
88.4375
87.0
85.6875
84.9375
85.25
89.375
101.0625
118.375
135.0
149.0
161.75
172.75
180.8125
186.3125
190.3125
193.5
196.375
198.9375
201.125
202.4375
202.625
201.6875
199.5625
196.3125
191.4375
184.4375
174.9375
162.3125
148.75
139.625
135.625
132.3125
128.5
125.0625
122.375
119.6875
116.75
113.8125
111.1875
108.875
106.4375
104.0625
102.0625
100.375
98.6875
97.25
96.0625
95.0625
94.125
93.125
91.875
90.5625
89.5
88.5
87.1875
85.5625
84.125
83.125
83.0625
85.0625
93.0
108.5
126.3125
141.375
154.1875
165.9375
175.375
181.8125
186.125
189.5625
192.6875
195.375
197.4375
198.8125
199.375
198.875
197.1875
194.0625
189.3125
182.5625
173.0625
160.625
148.125
140.1875
136.25
132.6875
128.5625
125.125
122.1875
119.0625
115.9375
113.4375
111.375
109.0625
106.6875
104.5625
102.875
101.25
99.625
98.125
96.875
95.6875
94.5625
93.25
91.6875
90.4375
89.5
88.4375
87.125
86.0625
85.375
85.25
87.125
94.875
109.8125
127.0
142.0625
155.25
167.1875
176.875
184.0625
189.1875
192.875
195.8125
198.5
201.0
202.8125
203.4375
202.625
200.8125
198.0
193.875
187.75
178.9375
166.9375
153.6875
143.875
138.375
134.5
130.8125
127.625
124.75
121.9375
118.9375
115.9375
113.1875
110.6875
108.1875
105.8125
103.5625
101.625
100.0
98.5625
97.25
96.0
95.0
94.125
93.25
92.1875
91.0625
90.0625
89.0625
87.9375
86.5625
85.1875
84.375
84.4375
87.25
97.0625
113.875
131.4375
146.25
159.5
171.5
180.9375
187.3125
191.625
194.9375
197.75
200.375
202.6875
204.25
204.875
204.125
202.25
198.9375
194.125
187.375
177.8125
165.125
151.5625
141.9375
137.0625
133.5625
129.6875
126.125
123.1875
120.3125
117.1875
114.125
111.3125
108.75
106.3125
104.0
101.75
99.875
98.125
96.5625
95.125
93.8125
92.75
91.875
91.0
90.0625
88.9375
87.8125
86.9375
85.9375
84.625
83.1875
81.9375
81.25
81.4375
84.625
95.125
112.0625
129.25
143.5625
156.3125
167.6875
176.3125
182.25
186.5
189.9375
193.0
195.5625
197.6875
199.0
199.375
198.5
196.375
193.125
188.1875
180.875
170.75
157.8125
145.5625
138.125
134.375
130.875
127.125
124.0
121.375
118.4375
115.4375
112.625
110.125
107.625
105.25
103.3125
101.5625
99.8125
98.0625
96.4375
95.0625
94.125
93.25
92.1875
90.9375
89.75
88.75
87.75
86.4375
85.0
83.875
83.0625
82.8125
84.4375
91.6875
106.625
124.3125
139.6875
152.875
164.8125
174.4375
181.3125
186.0
189.5
192.4375
195.0625
197.1875
198.8125
199.5
199.0
197.1875
194.125
189.5625
182.9375
173.4375
160.8125
147.9375
139.625
135.25
131.5625
127.875
124.6875
121.9375
119.125
116.25
113.375
110.6875
108.125
105.625
103.25
101.1875
99.375
97.6875
96.1875
94.75
93.4375
92.375
91.5625
90.875
90.0625
89.125
87.9375
86.875
85.9375
84.8125
83.5
82.375
81.8125
82.375
87.0
99.4375
117.125
134.0
148.1875
161.125
172.4375
180.875
186.625
190.75
194.0625
196.875
199.3125
201.375
202.6875
203.0625
202.0625
199.75
196.0625
190.8125
183.625
173.75
160.875
148.0625
139.8125
135.5625
132.0625
128.3125
125.0625
122.1875
119.25
116.1875
113.125
110.1875
107.4375
104.9375
102.5
100.25
98.3125
96.5
94.875
93.375
92.0
91.0625
90.25
89.375
88.375
87.25
86.125
85.125
83.9375
82.5625
81.1875
80.125
79.625
80.6875
86.625
100.3125
118.125
134.1875
147.8125
160.3125
170.8125
178.3125
183.3125
187.0
190.25
193.25
195.75
197.5
198.4375
198.375
197.0625
194.625
190.875
185.125
176.875
165.8125
152.5625
141.0625
134.875
131.625
128.0625
124.25
121.25
118.625
115.8125
112.8125
109.9375
107.375
104.9375
102.75
100.75
98.875
97.125
95.625
94.3125
93.1875
92.1875
91.125
89.9375
88.625
87.625
86.8125
85.75
84.1875
82.6875
81.625
81.125
81.75
86.6875
99.375
117.25
133.6875
147.1875
159.25
169.6875
177.3125
182.4375
186.1875
189.25
192.0
194.3125
195.9375
196.75
196.625
195.3125
192.6875
188.625
182.625
173.9375
161.9375
148.75
139.25
134.4375
130.625
126.75
123.4375
120.8125
118.25
115.3125
112.3125
109.4375
106.9375
104.5
102.3125
100.3125
98.375
96.625
95.0
93.5
92.1875
91.125
90.25
89.5
88.6875
87.6875
86.6875
85.6875
84.75
83.625
82.4375
81.25
80.5
81.0
86.125
99.3125
117.375
134.0625
148.125
161.125
172.3125
180.375
185.6875
189.5
192.625
195.3125
197.625
199.5625
200.8125
200.9375
199.6875
197.1875
193.5625
188.3125
180.8125
170.5
157.5
145.1875
137.625
133.3125
129.6875
126.125
123.125
120.375
117.5
114.4375
111.5
108.8125
106.25
103.9375
101.75
99.6875
97.75
96.125
94.5625
93.1875
92.0625
91.1875
90.3125
89.5
88.5
87.375
86.375
85.5
84.25
82.8125
81.5
80.6875
80.9375
84.9375
96.5
114.125
131.25
145.4375
158.3125
169.8125
178.375
184.0625
187.9375
191.0625
193.5625
195.8125
197.6875
198.875
199.125
197.875
195.4375
191.875
186.6875
179.4375
169.375
156.5
143.8125
135.8125
131.6875
128.0625
124.25
121.0
118.375
115.5625
112.5
109.625
107.0625
104.625
102.25
100.0
98.0
96.125
94.5625
93.125
91.8125
90.8125
90.0
89.125
88.0
86.75
85.625
84.75
83.75
82.1875
80.6875
79.5625
79.25
80.6875
87.3125
101.5
119.3125
135.125
148.625
160.9375
171.1875
178.25
182.875
186.3125
189.3125
192.0625
194.1875
195.5625
196.125
195.625
194.0
191.1875
186.875
180.625
171.6875
159.4375
146.1875
136.9375
132.4375
129.0
125.125
121.75
119.0
116.1875
113.1875
110.25
107.75
105.3125
103.0
100.75
98.6875
96.9375
95.375
93.9375
92.5625
91.5625
90.75
89.8125
88.6875
87.5
86.5625
85.75
84.5
83.0
81.625
80.5
80.25
82.5625
91.6875
108.25
126.125
141.1875
154.375
166.375
175.875
182.1875
186.375
189.5625
192.3125
194.6875
196.75
198.3125
198.875
198.125
195.9375
192.5
187.6875
180.9375
171.4375
158.875
145.6875
136.875
132.4375
128.8125
125.1875
122.0625
119.375
116.625
113.6875
110.6875
107.875
105.375
102.875
100.625
98.5
96.625
95.0625
93.5625
92.375
91.4375
90.625
89.75
88.625
87.3125
86.1875
85.3125
84.3125
83.0
81.75
80.3125
79.375
80.8125
87.6875
102.375
120.75
137.0625
150.8125
163.5
173.75
180.5625
185.125
188.625
191.1875
193.75
197.8125
199.625
199.125
198.3125
197.0625
194.4375
190.25
184.25
176.25
165.375
152.0625
140.5625
134.0625
130.25
126.625
123.0
120.0
117.375
114.5625
111.625
108.8125
106.25
103.8125
101.5
99.25
97.1875
95.4375
93.875
92.4375
91.0
89.9375
89.1875
88.4375
87.5625
86.375
85.25
84.375
83.5625
82.375
80.875
79.5
78.8125
79.5
84.375
97.1875
115.4375
132.375
146.5
159.5625
170.875
178.875
184.0625
187.75
190.9375
193.875
195.9375
197.125
197.9375
198.0
196.5
193.8125
190.0
184.5
177.125
166.875
153.5
141.3125
134.5
130.875
127.3125
123.25
119.3125
116.6875
114.75
111.75
108.6875
106.1875
103.875
101.3125
98.8125
96.5625
95.125
94.3125
92.75
90.6875
89.375
88.875
88.25
86.9375
85.875
85.3125
84.125
82.875
81.5625
80.3125
80.0
79.5
79.375
82.25
92.9375
110.75
128.875
143.4375
156.3125
168.125
177.1875
182.8125
186.5625
189.5625
192.1875
194.375
196.0625
197.1875
197.3125
196.0
193.1875
189.1875
184.3125
177.375
167.4375
154.375
141.8125
133.875
129.5
125.8125
122.0
119.0
116.4375
113.5625
110.625
108.0
105.5
102.9375
100.5
98.25
96.25
94.5
93.0
91.5
90.0625
88.9375
88.0
87.25
86.4375
85.4375
84.375
83.375
82.625
81.6875
80.3125
78.8125
77.8125
77.5625
79.125
86.6875
102.5
121.25
137.0
150.3125
162.6875
172.9375
179.5625
183.5625
187.0625
190.5625
193.125
194.875
196.0
196.125
195.1875
193.375
190.6875
186.3125
179.9375
170.875
158.6875
145.3125
135.625
130.5
126.8125
123.0
119.6875
117.125
114.6875
111.8125
108.625
105.8125
103.375
101.125
98.75
96.5625
94.75
93.0
91.375
90.125
89.125
88.1875
87.125
86.1875
85.375
84.5
83.5625
82.5625
81.625
80.5
79.125
77.6875
77.0
78.4375
84.875
99.375
117.8125
134.0625
147.6875
160.4375
171.125
178.5
183.125
186.375
189.0
191.3125
193.25
194.6875
195.4375
194.9375
193.0
189.6875
185.3125
179.375
170.9375
159.1875
145.875
135.5625
130.25
126.75
122.9375
119.25
116.5
114.0625
111.1875
108.25
105.5625
103.0625
100.8125
98.5
96.3125
94.375
92.6875
91.125
89.6875
88.5
87.5
86.5
85.6875
84.875
83.9375
82.9375
82.0625
81.125
80.125
78.875
77.625
76.625
76.3125
78.0
86.0625
102.125
120.5625
136.1875
149.625
161.9375
172.0
179.0
183.4375
186.5
189.0625
191.0625
192.75
194.1875
194.5
193.5625
191.6875
188.6875
183.9375
177.3125
168.1875
155.9375
142.8125
133.625
128.8125
125.3125
121.8125
118.4375
115.5
112.875
110.25
107.5
104.875
102.1875
99.75
97.625
95.6875
93.75
92.125
90.5625
89.0
87.8125
86.9375
86.1875
85.3125
84.4375
83.625
82.6875
81.5625
80.5625
79.75
78.6875
77.25
76.1875
76.0625
79.0625
89.0
106.0625
124.0625
138.9375
152.0625
164.1875
173.5
179.625
183.5
186.3125
188.6875
190.6875
192.3125
193.25
193.375
192.3125
190.0
186.375
181.5
174.4375
164.3125
151.4375
139.3125
131.6875
127.375
123.6875
120.0
116.875
114.3125
111.75
108.875
106.0625
103.5
101.1875
99.0
96.8125
94.6875
92.875
91.1875
89.75
88.3125
87.0625
86.125
85.5
84.625
83.6875
82.8125
81.6875
80.8125
80.1875
79.3125
78.0
76.5
75.5
75.5625
78.5625
88.5625
105.625
123.5
138.3125
151.4375
163.5
172.9375
179.125
183.0625
185.9375
188.25
190.25
191.875
192.875
192.875
191.6875
189.3125
185.6875
180.625
173.6875
163.9375
151.125
138.8125
131.25
127.125
123.375
119.5
116.3125
113.8125
111.375
108.6875
105.9375
103.375
101.0
98.8125
96.5
94.25
92.375
90.9375
89.625
88.25
87.0625
86.0625
85.0625
84.25
83.5
82.625
81.4375
80.375
79.8125
79.1875
78.0625
76.625
75.5
75.375
77.25
85.0
100.75
119.25
135.0625
148.5
160.625
170.625
177.4375
181.75
184.9375
187.625
189.5625
191.125
192.3125
192.6875
191.8125
189.5625
186.125
181.375
174.8125
165.625
153.3125
140.625
132.0625
127.4375
123.625
119.875
116.8125
114.25
111.6875
108.9375
106.1875
103.6875
101.1875
98.875
96.8125
94.75
92.8125
91.0625
89.625
88.3125
87.0625
85.9375
85.0
84.0625
83.4375
82.9375
82.3125
81.3125
80.125
79.0625
78.1875
77.0
75.75
74.875
74.75
77.9375
89.1875
107.25
125.0
139.5
152.625
164.3125
173.0
178.75
182.625
186.0
188.5
190.0625
191.0
191.5625
191.9375
191.375
188.9375
185.0625
179.8125
172.4375
162.0625
148.8125
136.875
130.1875
126.4375
122.625
118.5
115.5625
113.3125
110.6875
107.625
104.75
102.125
99.5625
98.0
96.8125
94.25
92.0625
91.125
90.4375
89.0
86.125
84.5
85.125
85.4375
83.9375
81.1875
79.5
79.4375
78.5
77.375
77.8125
77.25
75.375
74.125
76.0
82.0625
95.1875
112.4375
128.3125
142.375
156.125
167.4375
174.5625
179.375
182.75
185.375
187.6875
189.75
191.3125
191.9375
191.4375
189.875
187.0625
182.75
177.1875
169.4375
158.25
144.8125
133.9375
128.125
124.75
121.4375
118.375
115.6875
112.8125
109.875
107.25
104.625
102.125
99.9375
97.5
95.375
93.875
92.25
90.125
88.25
86.875
86.0625
85.375
84.4375
83.375
82.625
81.9375
80.9375
79.875
78.9375
78.3125
77.4375
76.375
75.625
74.1875
74.0
75.4375
81.125
95.6875
114.375
130.625
144.4375
156.0625
166.75
175.0
179.875
182.9375
185.6875
187.75
189.3125
191.0
191.9375
191.625
190.0
187.125
182.75
176.75
168.5
157.0625
143.9375
133.8125
128.5625
125.1875
121.5
118.125
115.5
112.875
109.9375
107.0
104.4375
102.125
100.0
97.8125
95.5
93.5625
92.1875
91.0625
89.4375
87.6875
86.0625
84.9375
84.125
83.625
83.1875
82.625
81.75
80.8125
79.8125
78.875
77.8125
76.6875
75.375
74.4375
74.9375
79.3125
91.5
109.625
126.625
140.25
152.875
164.5
173.125
178.375
182.0625
185.1875
187.6875
189.8125
191.375
191.875
191.75
190.75
188.5
184.875
179.5
171.75
160.9375
147.875
136.5625
129.875
126.0
122.4375
118.75
116.0
113.9375
111.5
108.5625
106.0
103.6875
101.0625
98.375
96.1875
94.625
93.125
91.625
90.0625
88.8125
87.625
86.4375
85.5625
84.6875
83.75
82.875
82.0
81.75
81.375
80.0625
78.0
76.6875
76.125
75.5
76.4375
83.0625
97.6875
115.875
131.625
145.1875
157.8125
168.625
176.75
180.875
183.25
186.4375
189.25
190.625
191.375
192.25
192.0625
190.5625
187.6875
183.4375
177.5625
169.25
157.5625
144.4375
134.75
129.5625
126.0
122.5
119.125
115.8125
113.75
111.5
108.125
105.5625
103.5
101.0
98.5
96.75
95.1875
93.5625
91.875
90.0625
88.0625
86.9375
86.6875
86.0625
85.1875
84.8125
84.0625
82.125
80.4375
79.75
79.8125
79.375
77.875
77.0625
78.0625
82.1875
93.875
111.8125
129.125
143.5625
157.0
167.875
174.6875
179.875
184.0
186.3125
188.5
191.6875
193.6875
193.8125
193.0
191.9375
189.4375
184.875
178.4375
170.5625
159.625
146.1875
135.875
131.625
128.6875
123.5625
118.875
115.875
114.625
112.5
109.375
106.5625
103.8125
102.8125
101.75
99.3125
92.8125
83.0
78.125
91.6875
106.3125
98.8125
83.5
74.375
71.0
82.4375
97.4375
93.9375
79.375
75.375
80.875
82.0625
76.9375
74.3125
76.875
82.25
88.8125
105.0625
135.0
155.3125
158.375
160.6875
170.25
180.0
187.3125
186.8125
181.5
186.1875
195.4375
196.375
191.6875
187.625
187.25
183.875
174.5625
170.125
165.0
150.875
133.0
123.5
125.75
127.25
119.9375
110.375
110.9375
116.5
115.8125
108.125
100.75
99.25
100.5
97.5625
94.25
93.8125
93.125
90.9375
89.375
88.8125
88.0625
86.9375
85.9375
85.0
83.9375
83.0625
82.3125
81.125
79.75
78.5625
77.8125
77.875
80.875
90.9375
108.0
125.625
140.0625
152.5625
163.75
172.3125
178.125
182.1875
185.3125
187.875
190.125
192.0625
193.0625
192.9375
191.8125
189.5
185.9375
181.0625
173.9375
163.5625
150.5625
139.125
132.75
129.4375
126.125
122.3125
118.75
116.0
113.5625
110.8125
108.25
106.125
103.5
101.0625
98.9375
96.9375
95.125
93.5
92.0625
90.75
89.5625
88.6875
88.0625
87.1875
86.0625
85.1875
84.4375
83.625
82.5625
81.5
80.4375
79.1875
78.5
78.75
82.375
93.4375
110.875
128.0
142.25
155.3125
167.0
175.8125
181.75
185.9375
189.0
191.5625
193.75
195.75
197.0625
197.0625
195.8125
193.5
189.9375
185.0625
178.375
168.75
156.25
144.0625
136.0625
131.625
127.8125
124.125
120.875
118.125
115.625
113.0
110.3125
107.5625
104.9375
102.5
100.3125
98.625
97.125
95.5625
94.0
92.3125
90.875
89.8125
89.0
88.1875
87.375
86.625
85.75
85.1875
84.25
82.875
81.4375
80.1875
78.875
78.1875
79.4375
85.375
98.5625
116.25
133.0
147.125
159.75
170.625
178.3125
183.0625
186.625
190.125
192.8125
194.375
195.875
197.25
197.0625
195.1875
192.5
188.625
183.0
175.25
164.5625
151.625
140.25
133.5
129.6875
126.0
122.4375
119.625
116.875
113.6875
110.875
108.25
105.5625
103.3125
101.3125
99.375
97.5625
95.6875
93.8125
92.0625
90.5625
89.1875
88.0
87.3125
86.6875
86.0
84.9375
83.8125
83.125
82.375
81.3125
79.9375
78.5625
77.625
77.375
78.75
85.375
99.875
117.9375
133.5
146.6875
159.0
169.0625
175.6875
180.3125
184.0625
187.1875
189.75
191.75
193.0
193.5
193.0625
191.5
188.75
184.625
178.5625
169.8125
157.8125
144.6875
135.625
131.125
127.5625
123.5625
120.1875
117.5625
115.0625
112.3125
109.5
106.9375
104.5625
102.3125
100.125
98.125
96.25
94.5
93.0
91.625
90.5
89.5625
88.6875
87.75
86.875
85.75
84.6875
83.875
82.8125
81.3125
79.9375
78.875
78.1875
78.25
81.1875
91.4375
108.5625
126.0
140.0625
152.1875
162.875
171.0625
176.625
180.5
183.75
186.375
188.3125
189.8125
190.75
190.75
189.625
187.25
183.375
177.8125
169.5625
158.125
145.125
135.5
130.75
127.4375
123.8125
120.75
118.5
116.0625
113.4375
111.0625
109.0
106.9375
104.8125
102.6875
100.5625
98.5
96.625
94.875
93.25
91.75
90.875
91.0625
95.125
106.625
123.0
138.5
151.375
162.8125
172.3125
178.8125
182.6875
185.0625
186.625
187.625
188.0625
188.1875
187.25
185.0
180.9375
174.375
164.1875
151.1875
140.125
134.25
130.625
126.8125
123.25
120.625
118.3125
115.875
113.6875
111.5
108.8125
106.0625
103.6875
101.625
99.5625
97.75
96.5
96.25
99.6875
110.75
127.25
142.9375
155.5
166.5
175.5625
181.6875
185.0
186.375
186.5625
186.25
185.5625
184.0625
181.3125
176.375
168.1875
156.25
143.9375
135.875
131.5
127.8125
124.3125
121.375
118.875
116.25
113.5
110.875
108.375
105.9375
103.5625
101.3125
99.3125
97.5
95.75
94.0
92.4375
91.0
89.75
88.5625
87.375
86.1875
84.9375
83.75
82.75
81.75
80.875
80.0
79.0625
78.3125
77.625
76.875
76.1875
75.5625
75.0
74.4375
73.8125
73.375
73.125
73.0625
72.9375
72.625
72.25
71.8125
71.4375
70.9375
70.125
69.3125
69.125
71.5
81.25
100.4375
121.8125
138.8125
153.125
166.75
177.625
184.625
189.25
192.6875
195.25
197.375
199.0625
200.375
200.8125
199.9375
197.8125
194.6875
190.3125
184.4375
176.25
165.125
151.875
140.6875
134.5625
131.0
127.1875
123.375
120.375
117.6875
114.8125
111.875
109.0
106.5
104.1875
102.125
100.3125
98.5
96.6875
94.875
93.125
91.625
90.375
89.1875
88.0
86.9375
86.1875
85.5
84.75
83.8125
82.8125
81.9375
81.25
80.4375
79.375
78.125
77.1875
77.0
79.25
88.25
104.75
122.5
137.375
150.5
162.625
172.375
179.0625
183.375
186.625
189.1875
191.25
193.0625
194.5
194.9375
193.875
191.8125
188.8125
184.5
178.3125
169.3125
157.125
144.1875
135.125
130.4375
127.0
123.4375
120.1875
117.5
114.875
112.125
109.375
106.875
104.5
102.0625
99.8125
97.8125
96.0625
94.375
92.8125
91.5
90.125
88.875
87.9375
87.3125
86.6875
85.9375
85.125
84.125
83.125
82.25
81.4375
80.3125
79.125
78.125
77.9375
80.3125
89.1875
105.625
123.8125
139.125
152.3125
164.3125
174.0
180.6875
185.3125
188.9375
191.9375
194.3125
196.1875
197.4375
198.0
197.625
196.0625
193.125
188.8125
182.8125
174.4375
163.1875
150.0625
139.5
133.8125
130.25
126.5
123.0625
120.25
117.625
114.8125
111.9375
109.1875
106.625
104.125
101.6875
99.4375
97.4375
95.625
93.875
92.375
91.0625
89.8125
88.625
87.625
86.8125
86.125
85.25
84.125
83.125
82.25
81.25
79.8125
78.5
77.75
77.9375
80.75
90.0625
106.4375
124.0625
138.875
151.875
163.5625
172.5625
178.75
183.1875
186.5625
189.4375
191.8125
193.75
195.1875
195.75
194.9375
192.875
189.75
185.3125
178.8125
169.5
157.3125
144.375
135.4375
131.0
127.6875
124.0625
120.625
117.9375
115.5
112.875
110.0625
107.25
104.875
102.5
100.1875
98.3125
96.6875
95.125
93.5
92.0625
90.9375
89.9375
89.0625
88.25
87.1875
86.0625
85.0625
84.1875
83.0
81.625
80.3125
79.25
78.8125
80.25
87.75
103.125
120.9375
136.0625
148.75
160.25
169.5625
176.125
180.6875
184.0
186.625
188.9375
190.875
192.1875
192.5625
191.875
190.0
186.8125
182.0625
175.125
165.3125
152.625
140.75
133.8125
130.125
126.5
122.8125
120.0
117.5
114.75
111.9375
109.4375
107.1875
105.125
103.0
100.9375
98.9375
97.125
95.5625
94.25
93.1875
92.1875
91.1875
90.25
89.0625
87.875
87.0
86.0625
84.8125
83.5
82.5
81.6875
81.5625
84.5625
94.625
111.1875
128.5
143.25
156.375
167.875
176.8125
182.875
187.0625
190.375
193.1875
195.625
197.625
198.875
199.0
198.125
196.1875
192.875
188.1875
181.4375
171.625
159.0625
146.75
138.875
134.4375
130.625
127.0
124.0
121.375
118.6875
115.8125
113.0
110.375
107.9375
105.5625
103.375
101.375
99.5
97.75
96.3125
95.0625
94.0625
93.1875
92.375
91.5
90.4375
89.3125
88.3125
87.25
85.9375
84.625
83.4375
82.75
83.375
88.25
100.9375
118.875
135.625
149.6875
162.5625
173.6875
181.8125
187.25
191.0625
194.1875
196.9375
199.3125
201.25
202.5
202.5
201.3125
198.9375
195.4375
190.3125
183.0625
173.125
160.5
147.875
139.5625
135.25
131.625
127.8125
124.5
121.75
119.125
116.25
113.3125
110.5625
108.0
105.5625
103.4375
101.5
99.6875
97.9375
96.25
94.875
93.8125
92.875
91.9375
90.8125
89.5
88.25
87.25
86.25
84.875
83.25
81.9375
81.1875
82.0
87.5
100.875
118.75
135.0625
148.75
161.3125
172.125
179.75
184.8125
188.4375
191.4375
194.125
196.5
198.375
199.375
199.375
198.25
195.5625
191.5
186.0
178.3125
167.625
154.375
142.5
135.875
132.375
128.75
124.875
121.8125
119.25
116.5
113.625
110.9375
108.375
105.9375
103.5625
101.375
99.375
97.625
96.125
95.0
93.9375
92.9375
92.0
90.8125
89.5
88.375
87.4375
86.3125
84.75
83.25
82.25
81.8125
82.9375
89.1875
103.3125
121.125
136.9375
150.3125
162.5625
172.5625
179.625
184.4375
188.0
190.9375
193.4375
195.625
197.125
197.75
197.375
195.625
192.8125
188.5625
182.5
173.625
161.125
147.75
138.8125
134.6875
131.25
127.4375
124.0625
121.125
118.375
115.5625
112.8125
110.0625
107.5
105.0
102.625
100.5625
99.3125
97.9375
96.0
94.375
92.8125
92.0
91.5
90.875
89.8125
88.5
87.3125
86.1875
84.9375
83.6875
82.6875
82.25
82.875
88.3125
102.25
120.4375
136.875
150.625
163.3125
173.9375
181.5625
186.5625
190.0625
193.0
195.75
198.0625
199.9375
201.1875
201.0
199.4375
196.5625
192.6875
187.25
179.625
168.5625
155.0625
143.4375
136.75
132.8125
129.125
125.625
122.625
119.875
117.0
114.0625
111.5
108.875
106.0
103.5625
101.625
99.8125
97.8125
95.9375
94.4375
93.1875
92.375
91.625
90.5625
89.4375
88.375
87.5
86.75
85.6875
84.25
82.8125
81.625
81.0625
81.5
85.75
97.5
115.25
132.5
146.8125
159.8125
171.25
179.75
185.25
189.0
192.0625
194.625
196.875
198.9375
200.1875
200.3125
199.125
196.6875
193.0
187.8125
180.5625
170.4375
157.4375
144.8125
136.8125
132.625
129.1875
125.4375
122.3125
119.6875
117.0625
114.125
111.1875
108.5
105.9375
103.5625
101.375
99.375
97.625
95.875
94.3125
93.0
91.9375
91.125
90.25
89.25
88.25
87.25
86.25
85.25
84.125
82.8125
81.5625
80.5625
80.5
83.125
92.625
109.375
127.25
142.125
155.25
167.125
176.5625
182.875
187.0625
190.25
192.9375
195.1875
197.125
198.375
198.75
197.875
195.8125
192.4375
187.375
180.4375
170.875
158.375
145.375
136.5625
132.0625
128.5
124.75
121.5
118.75
116.0625
113.125
110.25
107.5625
105.125
102.8125
100.5625
98.5
96.5625
94.8125
93.3125
91.875
90.6875
89.6875
88.75
87.875
87.0
85.9375
84.875
83.9375
83.0625
81.875
80.375
79.1875
78.4375
78.875
82.9375
94.5
112.0625
129.1875
143.3125
156.0
167.125
175.3125
180.875
184.8125
187.9375
190.625
192.9375
194.75
195.75
195.6875
194.4375
191.9375
188.1875
182.875
175.3125
164.75
151.625
140.0
133.3125
129.625
126.0625
122.5
119.5
116.875
114.0
111.0625
108.375
105.875
103.4375
101.125
99.0
97.0625
95.375
93.8125
92.4375
91.3125
90.375
89.5
88.625
87.5625
86.375
85.4375
84.5625
83.5
82.0625
80.75
79.8125
79.5625
81.75
90.25
106.3125
124.0625
139.125
152.25
164.25
173.8125
180.25
184.625
187.6875
190.1875
192.4375
194.3125
195.5625
195.875
195.125
193.0625
189.8125
185.125
178.4375
168.9375
156.375
143.8125
135.6875
131.25
127.4375
123.6875
120.5
117.875
115.125
112.3125
109.5
106.875
104.375
102.0
99.75
97.6875
95.875
94.125
92.625
91.1875
89.875
88.875
88.0
87.25
86.375
85.4375
84.4375
83.5
82.625
81.5
80.25
79.0
78.125
78.25
81.875
93.0
110.625
128.1875
142.625
155.5625
167.25
176.1875
182.125
186.0625
189.0625
191.6875
194.0
196.0
197.3125
197.5625
196.375
194.125
190.6875
185.6875
178.8125
169.0
156.375
143.5
134.9375
130.625
127.0
123.25
120.1875
117.5625
114.9375
112.0625
109.1875
106.5
104.0
101.5
99.25
97.3125
95.5625
93.875
92.25
90.75
89.5
88.4375
87.6875
87.0
86.125
85.125
84.0625
83.125
82.25
81.25
79.9375
78.625
77.6875
77.875
81.375
92.0625
109.4375
126.9375
141.3125
154.125
166.0
175.125
181.0625
185.0
187.9375
190.625
192.9375
194.625
195.625
195.875
195.0
192.875
189.4375
184.4375
177.4375
167.625
155.0
142.25
133.8125
129.4375
125.9375
122.25
119.125
116.5
113.875
111.0
108.125
105.5
103.125
100.8125
98.5625
96.5
94.6875
93.0625
91.5
90.0625
88.6875
87.5
86.625
85.9375
85.125
84.1875
83.0625
82.0625
81.125
80.125
78.8125
77.4375
76.3125
76.0
77.8125
85.4375
100.9375
119.125
134.6875
147.9375
160.25
170.375
177.25
181.625
184.875
187.5625
189.875
191.8125
193.25
193.625
192.9375
191.1875
188.1875
183.8125
177.5
168.5625
156.6875
143.625
134.0625
129.1875
125.6875
122.0625
118.75
115.9375
113.3125
110.625
107.8125
105.1875
102.6875
100.3125
98.0625
96.0
94.25
92.625
91.0
89.5
88.25
87.125
86.25
85.5
84.6875
83.6875
82.5625
81.625
80.9375
80.0
78.6875
77.3125
76.25
75.875
77.1875
83.6875
98.125
116.3125
132.25
145.5625
157.8125
168.0
175.0625
179.5625
182.875
185.6875
188.1875
190.25
191.75
192.1875
191.5625
189.8125
186.8125
182.4375
176.125
167.25
155.125
142.125
133.1875
128.8125
125.4375
121.75
118.5625
115.9375
113.4375
110.625
107.75
105.125
102.8125
100.5
98.25
96.3125
94.5625
92.875
91.3125
89.8125
88.5
87.4375
86.625
85.875
85.125
84.125
83.0625
82.125
81.375
80.375
79.0625
77.75
76.75
76.75
79.375
88.9375
105.625
123.5
138.375
151.25
163.125
172.6875
179.0
183.0625
186.1875
188.6875
190.6875
192.4375
193.6875
194.0625
193.1875
191.0625
187.5625
182.75
176.125
166.8125
154.4375
141.75
133.1875
128.625
124.875
121.1875
118.0625
115.5625
113.0625
110.25
107.375
104.5625
102.125
99.875
97.75
95.8125
94.0
92.25
90.6875
89.1875
87.875
86.6875
85.75
85.0
84.25
83.5
82.5625
81.5625
80.75
80.0
78.9375
77.5625
76.3125
75.625
76.5625
82.0
95.4375
113.625
130.1875
143.9375
156.75
167.9375
175.8125
180.8125
184.3125
187.125
189.4375
191.4375
193.125
193.9375
193.5625
192.0625
189.3125
185.5
180.0625
172.3125
161.4375
148.4375
137.25
130.875
127.0625
123.4375
119.875
116.9375
114.375
111.625
108.75
106.0
103.5625
101.1875
98.875
96.6875
94.8125
93.125
91.5
90.0
88.5
87.25
86.3125
85.5625
84.875
84.125
83.25
82.1875
81.1875
80.4375
79.5625
78.3125
76.875
75.9375
75.9375
78.8125
88.5625
105.375
123.1875
138.0625
151.125
163.125
172.4375
178.4375
182.375
185.4375
188.0
190.0625
191.8125
192.9375
193.3125
192.4375
190.1875
186.625
181.625
174.75
165.25
152.875
140.4375
132.3125
127.875
124.25
120.625
117.5625
115.0625
112.5625
109.75
106.9375
104.1875
101.6875
99.4375
97.375
95.375
93.5625
91.8125
90.25
88.875
87.625
86.5
85.5625
84.75
84.0
83.1875
82.3125
81.3125
80.5
79.625
78.625
77.375
76.125
75.375
75.625
79.0625
89.5625
106.75
124.5
139.125
151.875
163.5625
172.625
178.625
182.5
185.4375
187.875
189.9375
191.625
192.625
192.625
191.5
189.125
185.4375
180.375
173.25
163.25
150.4375
138.5
131.0625
126.9375
123.1875
119.5625
116.625
114.0
111.3125
108.5
105.625
103.0
100.625
98.4375
96.3125
94.3125
92.5
90.875
89.3125
87.875
86.625
85.5625
84.6875
84.125
83.5625
82.5625
81.25
80.25
79.5
78.5625
77.4375
76.125
75.0625
74.8125
76.4375
84.0
99.375
117.625
133.375
146.75
158.75
168.5625
175.25
179.5
182.5625
185.125
187.25
189.0625
190.1875
190.5
189.75
187.75
184.625
180.0625
173.5
164.375
152.1875
139.5625
131.125
126.75
123.25
119.5625
116.4375
113.9375
111.4375
108.625
105.875
103.25
100.8125
98.625
96.5
94.5625
92.8125
91.125
89.5625
88.1875
86.875
85.75
84.9375
84.25
83.4375
82.4375
81.3125
80.4375
79.8125
78.875
77.5625
76.25
75.3125
75.1875
77.375
86.0625
102.3125
120.25
135.25
148.25
160.1875
169.625
176.0625
180.25
183.3125
185.8125
188.0
189.875
191.1875
191.3125
190.3125
188.125
184.6875
179.875
173.125
163.375
150.6875
138.75
131.375
127.1875
123.4375
119.875
117.0
114.5625
112.0
109.1875
106.4375
103.875
101.25
98.9375
96.9375
94.8125
93.0625
91.5
90.0
88.4375
87.125
86.0625
85.1875
84.5
83.8125
83.0
82.125
81.1875
80.3125
79.5
78.3125
77.0
75.875
75.4375
76.6875
83.0625
97.5
115.75
131.8125
145.3125
157.875
168.6875
176.1875
180.9375
184.25
186.9375
189.125
191.0
192.4375
193.0
192.375
190.6875
187.875
183.6875
177.875
169.875
158.75
145.5625
135.0
129.25
125.5625
121.9375
118.5625
115.75
113.25
110.625
107.75
105.0625
102.5625
100.25
98.0625
96.0625
94.1875
92.25
90.625
89.1875
87.9375
86.6875
85.5
84.75
84.125
83.375
82.5
81.5625
80.5625
79.8125
78.9375
77.875
76.5
75.4375
75.3125
77.6875
86.6875
103.125
121.25
136.375
149.375
161.5
171.25
177.75
181.8125
184.6875
187.25
189.3125
190.875
192.125
192.625
191.875
189.6875
186.25
181.5
175.0
165.75
153.5625
141.1875
132.6875
128.0625
124.4375
120.8125
117.625
115.0
112.375
109.625
106.8125
104.1875
101.75
99.4375
97.25
95.25
93.5
91.8125
90.3125
88.875
87.5
86.375
85.5625
85.0
84.375
83.4375
82.375
81.375
80.4375
79.5625
78.5
77.25
76.125
75.5
76.5
82.375
96.25
114.5
130.9375
144.5625
157.0
167.75
175.3125
180.0625
183.3125
186.0
188.25
190.125
191.4375
192.0
191.5625
190.0
187.0
182.625
176.875
168.8125
157.6875
144.625
134.5
128.9375
125.125
121.375
118.0625
115.5625
113.125
110.375
107.5625
104.8125
102.1875
99.875
97.6875
95.625
93.625
91.875
90.25
88.75
87.3125
86.0625
85.0
84.0625
83.375
82.75
81.875
80.875
79.875
79.0625
78.3125
77.25
75.9375
74.6875
74.0625
75.125
81.0
94.625
112.8125
129.3125
142.875
155.3125
166.125
173.75
178.5
181.875
184.5
186.8125
188.6875
190.1875
190.875
190.4375
188.8125
186.0
181.875
175.9375
167.625
156.25
143.25
133.25
128.0
124.5
120.8125
117.5
114.8125
112.25
109.5625
106.6875
104.0625
101.5625
99.25
97.3125
95.0625
93.0
91.4375
90.0625
88.625
87.1875
86.0625
85.1875
84.4375
83.6875
82.75
81.625
80.625
79.8125
79.0
77.75
76.375
75.25
74.8125
75.9375
81.75
95.5
113.4375
129.5625
143.0
155.25
165.5625
172.75
177.3125
180.625
183.25
185.5625
187.375
188.75
189.3125
188.8125
187.0
184.0625
179.875
173.6875
164.75
152.8125
140.0625
131.3125
126.875
123.375
119.75
116.5625
113.9375
111.5
108.8125
106.0625
103.5625
101.1875
98.9375
96.75
94.75
92.9375
91.25
89.75
88.375
87.25
86.25
85.4375
84.6875
83.8125
82.9375
81.9375
80.9375
80.125
79.0625
77.8125
76.5625
75.6875
75.75
78.75
88.75
105.8125
123.625
138.25
151.0625
162.8125
171.9375
178.0
181.875
184.6875
187.125
189.1875
190.9375
192.0
192.0625
190.875
188.625
185.1875
180.375
173.5
163.6875
150.9375
138.625
130.875
126.75
123.3125
119.75
116.8125
114.3125
111.75
108.9375
106.125
103.5625
101.1875
98.9375
96.75
94.8125
92.875
91.25
89.875
88.4375
87.125
86.0
85.125
84.5
83.875
83.0
81.9375
80.875
80.0625
79.25
78.25
76.875
75.75
75.25
76.5625
83.3125
98.0
116.3125
132.375
145.8125
158.25
168.875
176.1875
180.75
184.0
186.6875
188.9375
190.6875
192.0
192.6875
192.1875
190.5
187.625
183.4375
177.5625
169.25
157.875
145.0625
134.875
129.25
125.5
121.9375
118.6875
115.9375
113.375
110.625
107.8125
105.125
102.625
100.3125
98.0625
96.0
94.125
92.375
90.875
89.375
87.9375
86.6875
85.6875
84.875
84.125
83.375
82.5
81.625
80.75
79.9375
78.9375
77.75
76.4375
75.4375
75.3125
77.75
86.5
102.875
121.0625
136.1875
149.25
161.125
170.75
177.125
181.125
184.0625
186.6875
188.875
190.5
191.9375
192.3125
191.25
189.1875
186.0625
181.25
174.8125
165.625
153.4375
140.8125
132.1875
127.5625
123.9375
120.25
117.0625
114.375
111.8125
109.0625
106.125
103.375
100.9375
98.75
96.625
94.625
92.6875
91.0
89.5625
88.0625
86.6875
85.5
84.5625
83.8125
83.125
82.3125
81.375
80.3125
79.4375
78.6875
77.6875
76.3125
75.0625
74.25
74.5
77.75
88.0625
105.125
122.5625
137.0625
149.875
161.5
170.3125
176.0
179.6875
182.5
185.0
187.0
188.5625
189.5
189.5
188.4375
186.125
182.4375
177.3125
170.0625
159.875
147.125
135.625
129.0625
125.25
121.625
118.125
115.125
112.5625
109.9375
107.0625
104.4375
102.0
99.75
97.5625
95.5
93.5625
91.8125
90.1875
88.75
87.4375
86.1875
85.1875
84.3125
83.5625
82.625
81.625
80.5625
79.75
78.9375
77.875
76.5625
75.375
74.5625
74.4375
76.5
84.875
100.75
118.625
133.6875
146.5
158.125
167.375
173.5
177.5
180.5
182.9375
185.0
186.75
187.8125
187.875
186.6875
184.4375
181.125
176.375
169.3125
159.25
146.5625
135.125
128.6875
125.0625
121.25
117.6875
114.9375
112.5625
109.9375
107.25
104.5625
102.1875
99.9375
97.8125
95.8125
93.875
92.125
90.5625
89.0625
87.8125
86.75
85.875
85.0625
84.25
83.375
82.375
81.375
80.625
79.6875
78.5
77.1875
76.0625
75.5
76.6875
83.0
97.1875
115.3125
131.4375
144.75
157.0625
167.625
175.0
179.8125
183.0625
185.8125
188.125
189.875
191.125
191.6875
191.3125
189.625
186.75
182.6875
177.0625
169.0625
157.875
145.0
134.875
129.3125
125.5625
121.8125
118.5
115.75
113.125
110.5
107.6875
105.0625
102.625
100.25
98.0
96.0
94.125
92.4375
90.875
89.375
88.0625
86.9375
86.0
85.1875
84.4375
83.625
82.75
81.75
80.9375
80.1875
79.1875
77.875
76.5
75.6875
76.0625
79.8125
90.875
108.375
125.875
140.25
153.125
164.75
173.5625
179.3125
183.1875
186.25
188.8125
190.875
192.5
193.4375
193.5
192.375
190.0625
186.5
181.4375
174.5
164.8125
152.25
139.6875
131.5625
127.3125
123.8125
120.125
116.9375
114.3125
111.75
108.875
106.0625
103.4375
101.0
98.75
96.5
94.5
92.6875
91.0
89.5625
88.25
86.9375
85.8125
84.875
84.0625
83.3125
82.4375
81.4375
80.5
79.6875
78.75
77.4375
76.125
75.125
74.75
75.875
81.75
95.5625
113.5625
129.625
143.0
155.25
165.625
172.9375
177.625
181.0625
183.8125
186.25
188.25
189.6875
190.1875
189.5625
187.875
185.1875
181.25
175.5
167.125
155.625
142.625
132.75
127.625
124.125
120.4375
117.0
114.25
111.6875
109.0625
106.3125
103.75
101.5
99.1875
97.0
94.9375
93.0625
91.375
89.875
88.4375
87.1875
86.125
85.25
84.4375
83.5625
82.625
81.5
80.5625
79.6875
78.5
77.0625
75.9375
75.1875
75.0
77.0
85.3125
101.375
119.1875
134.0
146.5625
157.8125
166.6875
172.625
176.6875
179.625
182.0625
184.0625
185.625
186.5
186.6875
185.75
183.4375
180.0
174.9375
167.6875
157.125
144.1875
133.4375
127.625
124.0625
120.1875
116.5
113.75
111.25
108.625
106.0625
103.625
101.375
99.25
97.0625
95.0
93.25
91.5625
90.125
88.625
87.5
86.6875
85.8125
85.0625
84.1875
83.1875
82.375
81.5625
80.625
79.3125
77.875
76.8125
76.375
77.125
82.25
95.0625
112.75
129.1875
142.875
155.25
165.8125
173.125
177.875
181.125
183.75
185.9375
187.6875
188.875
189.1875
188.6875
187.0625
184.3125
179.9375
173.625
164.75
152.6875
140.125
131.75
127.5625
123.875
120.1875
117.1875
114.75
112.1875
109.5625
106.9375
104.5625
102.1875
99.8125
97.625
95.6875
93.875
92.3125
90.875
89.5
88.1875
87.125
86.4375
85.8125
85.1875
84.25
83.25
82.3125
81.5625
80.6875
79.5
78.25
77.3125
77.0625
79.0625
87.0625
103.0625
121.4375
136.8125
150.0625
162.375
172.4375
179.25
183.75
187.125
189.9375
192.1875
194.0625
195.5
196.125
195.625
193.8125
190.9375
186.75
180.875
172.75
161.6875
148.625
137.625
131.625
127.9375
124.1875
120.5625
117.6875
114.9375
112.0
109.0
106.125
103.5625
101.125
98.875
96.625
94.625
92.625
90.875
89.375
88.125
87.0625
86.3125
85.625
84.75
83.75
82.5
81.375
80.625
79.4375
78.25
77.1875
76.0625
75.9375
79.0
88.125
104.1875
121.1875
135.8125
149.5
161.3125
170.0625
175.9375
180.0
183.0625
185.375
187.5625
189.6875
190.8125
190.8125
189.75
187.8125
185.0
180.5
173.6875
164.25
152.0625
139.5
131.125
126.875
123.375
119.4375
116.125
113.5625
111.125
108.5625
106.0625
103.5625
101.0625
98.8125
96.8125
94.875
93.125
91.5625
90.25
89.1875
88.3125
87.375
86.375
85.25
84.125
83.125
82.0625
80.625
79.1875
78.0
77.1875
77.125
79.6875
89.1875
105.875
123.375
137.4375
149.5
160.375
168.875
174.4375
178.125
180.9375
183.1875
185.0
186.5
187.1875
186.9375
185.75
183.25
179.375
173.625
165.125
153.4375
140.5
131.5625
127.3125
123.75
119.875
116.625
114.0625
111.5625
108.8125
106.25
104.0
101.75
99.5
97.4375
95.5
93.75
92.125
90.6875
89.4375
88.5
87.625
86.625
85.5625
84.5625
83.625
82.625
81.25
79.75
78.4375
77.5
77.375
79.0
86.375
101.8125
119.9375
134.9375
147.3125
158.5625
167.75
174.125
178.4375
181.4375
183.8125
185.875
187.6875
188.75
189.0
188.1875
186.1875
182.8125
177.8125
170.5625
160.0625
147.1875
136.125
130.1875
126.875
123.5
120.1875
117.3125
114.5625
111.6875
108.8125
106.1875
103.9375
101.8125
99.625
97.625
95.875
94.25
92.75
91.4375
90.375
89.625
88.8125
87.9375
87.0
86.0625
85.0625
84.0625
82.75
81.375
80.25
79.625
79.9375
83.625
94.875
112.375
129.625
143.9375
156.875
168.375
177.0625
182.8125
186.8125
190.0625
192.6875
194.875
196.75
197.9375
197.9375
196.875
194.75
191.375
186.5
179.6875
170.125
157.8125
145.25
136.6875
132.0625
128.5625
125.0625
122.0
119.375
116.6875
113.75
110.9375
108.4375
106.0625
103.6875
101.4375
99.375
97.5
95.625
93.9375
92.375
91.125
90.125
89.0625
87.75
86.4375
85.3125
84.3125
83.25
82.0
80.375
78.625
77.75
77.9375
80.9375
90.9375
107.8125
125.25
139.375
152.125
163.9375
172.8125
178.625
182.75
185.9375
188.5625
190.75
192.375
193.5
193.8125
192.9375
191.0625
187.5625
182.3125
175.1875
165.25
152.5625
140.125
132.5
128.9375
125.625
121.8125
118.75
116.25
113.625
110.75
108.0625
105.5
103.125
100.875
98.75
96.8125
95.1875
93.75
92.625
91.625
90.625
89.6875
88.5
87.1875
86.25
85.4375
84.25
82.625
81.125
80.125
79.6875
80.5
86.125
100.0
118.25
134.0625
146.5
157.75
167.375
174.125
178.625
181.8125
184.5
187.0
189.0
190.25
190.625
189.9375
188.0
184.6875
179.8125
172.8125
162.8125
150.0625
138.6875
132.3125
128.5625
124.6875
121.1875
118.4375
115.9375
113.3125
110.4375
107.6875
105.1875
102.75
100.5625
98.5625
96.5625
94.8125
93.1875
91.6875
90.5
89.5
88.75
88.0
87.0
85.9375
85.0625
84.25
83.3125
82.125
80.6875
79.625
79.3125
80.9375
88.25
103.375
121.5
137.0
150.3125
162.5625
172.625
179.625
184.375
187.75
190.4375
192.8125
194.6875
195.9375
196.5
195.9375
194.25
191.4375
187.0625
180.6875
171.875
160.1875
147.3125
137.8125
132.625
128.9375
125.25
122.0
119.3125
116.75
114.0
111.125
108.4375
106.0
103.625
101.25
99.1875
97.375
95.625
94.0625
92.625
91.375
90.5
89.75
88.9375
88.0625
86.875
85.8125
85.0
84.0625
82.75
81.25
80.0
79.3125
80.625
87.625
102.1875
119.9375
135.5
148.5625
160.3125
170.125
176.9375
181.125
184.1875
186.8125
189.125
191.1875
192.625
193.25
192.8125
190.8125
187.6875
183.4375
177.0625
168.0625
156.125
143.25
134.0625
129.625
126.3125
122.625
119.3125
116.75
114.1875
111.375
108.5625
105.9375
103.5
101.25
99.0625
97.0625
95.3125
93.625
92.25
91.0
89.9375
88.9375
88.125
87.25
86.125
84.9375
84.0
83.1875
82.125
80.625
79.25
78.25
78.125
79.5625
86.5
101.5625
119.75
135.0
147.3125
158.5
167.875
174.375
178.6875
181.875
184.3125
186.375
187.9375
189.0625
189.25
188.3125
186.1875
182.8125
177.6875
169.9375
159.125
146.25
135.75
130.5625
127.375
123.5
119.9375
117.3125
114.8125
112.0
109.0
106.25
103.75
101.5
99.375
97.4375
95.5625
93.75
92.25
91.0625
90.0625
89.25
88.25
87.1875
86.125
85.1875
84.5
83.6875
82.375
80.8125
79.5
78.9375
80.1875
86.75
101.0625
118.8125
134.5
147.75
160.0625
170.4375
177.6875
182.375
185.6875
188.1875
190.3125
192.25
193.6875
194.375
193.875
192.125
189.25
184.9375
178.625
169.625
157.6875
144.875
135.625
130.6875
127.1875
123.625
120.5
117.8125
115.1875
112.5
109.75
106.9375
104.4375
102.125
99.875
97.8125
95.9375
94.375
92.875
91.5
90.375
89.5
88.75
88.0
87.0625
85.9375
84.9375
84.125
83.3125
82.3125
80.9375
79.625
79.125
81.3125
89.875
105.9375
123.875
139.0
151.875
163.6875
173.3125
179.9375
184.125
186.9375
189.125
191.0625
192.625
193.5625
193.625
192.6875
190.6875
187.3125
182.375
175.5
166.0
153.5
140.75
132.3125
128.1875
124.75
121.0625
117.9375
115.375
112.875
110.125
107.25
104.625
102.25
100.0625
97.875
95.875
94.0
92.4375
91.0
89.8125
88.8125
88.0
87.125
86.1875
85.0625
83.9375
83.1875
82.3125
81.0
79.5
78.25
77.6875
77.9375
81.5625
92.875
110.4375
127.625
141.3125
153.375
164.125
172.0
177.125
180.625
183.5
185.875
187.875
189.25
190.0
189.625
188.125
185.375
181.25
175.25
166.5
154.5625
141.9375
133.3125
129.25
125.9375
122.125
118.8125
116.25
113.625
110.75
107.9375
105.375
102.9375
100.625
98.5
96.5
94.6875
93.0625
91.625
90.4375
89.4375
88.5625
87.75
86.8125
85.625
84.5625
83.8125
82.875
81.5625
80.1875
79.0
78.5625
80.4375
88.4375
104.0
121.9375
137.25
150.4375
162.5
172.3125
179.0
183.3125
186.375
188.8125
190.875
192.75
194.125
194.375
193.5625
191.5
188.1875
183.5625
177.0
167.6875
155.5
143.125
134.75
130.1875
126.5
122.8125
119.6875
117.0625
114.4375
111.5
108.3125
105.125
102.3125
99.8125
97.6875
95.75
93.9375
92.25
90.8125
89.6875
88.6875
87.8125
86.9375
85.9375
84.6875
83.4375
82.5625
81.75
80.75
79.4375
78.3125
77.875
78.8125
84.4375
97.75
115.5625
132.0
145.9375
158.625
169.375
177.0625
182.0625
185.375
187.875
190.125
192.0625
193.375
193.875
193.5
192.0625
189.375
185.25
179.375
170.9375
159.5
146.5
136.5625
131.0625
127.3125
123.6875
120.4375
117.75
115.1875
112.4375
109.625
106.875
104.3125
102.0
99.75
97.6875
95.8125
94.1875
92.8125
91.75
90.8125
90.0
88.9375
87.8125
86.8125
85.8125
84.6875
83.375
81.875
80.6875
80.375
82.3125
90.5625
106.5625
124.625
139.9375
153.0
164.9375
174.5
180.9375
185.0625
188.0625
190.5
192.625
194.3125
195.375
195.5
194.5625
192.3125
188.9375
184.0625
177.3125
167.875
155.625
143.0625
134.5625
130.0
126.3125
122.6875
119.5
116.8125
114.1875
111.3125
108.4375
105.75
103.25
101.0
98.8125
96.8125
95.0625
93.625
92.4375
91.5
90.5625
89.5
88.25
87.0625
86.125
85.125
83.875
82.3125
81.0625
80.5
81.875
88.9375
103.9375
122.25
138.1875
151.6875
163.875
173.8125
180.5
184.6875
187.625
190.0625
192.1875
193.9375
195.0
195.1875
194.1875
191.9375
188.5
183.625
176.75
167.0
154.3125
141.625
133.25
128.6875
125.125
121.4375
118.1875
115.5
112.8125
109.9375
107.0
104.3125
101.8125
99.5
97.375
95.375
93.5625
92.0
90.6875
89.75
88.9375
88.0625
86.9375
85.625
84.5
83.5625
82.4375
80.9375
79.375
78.375
78.4375
81.125
90.8125
107.75
125.75
140.5
153.25
164.75
173.5
179.1875
182.875
185.625
187.8125
189.625
190.9375
191.6875
191.625
190.375
187.75
183.8125
178.25
170.25
159.1875
146.125
135.4375
129.625
125.9375
122.1875
118.6875
115.8125
113.25
110.4375
107.5625
104.9375
102.5
100.25
98.0
95.875
93.9375
92.375
91.0625
90.0
89.0625
88.1875
87.0625
85.875
84.8125
83.875
82.9375
81.75
80.375
79.0
78.1875
78.5625
82.6875
94.5625
112.5625
129.8125
144.0
156.5625
167.625
175.625
180.5625
183.75
186.25
188.3125
190.0
191.1875
191.625
191.0
189.1875
186.125
181.625
175.25
166.25
154.1875
141.3125
132.5
127.9375
124.25
120.5
117.5
115.0625
112.375
109.4375
106.5625
103.9375
101.5
99.1875
96.9375
94.9375
93.1875
91.6875
90.25
88.8125
87.625
86.6875
86.0
85.375
84.4375
83.3125
82.25
81.3125
80.25
78.9375
77.6875
76.875
77.125
81.0625
93.125
111.6875
129.25
143.3125
156.125
167.625
176.125
181.4375
184.9375
187.5
189.6875
191.625
193.0625
193.8125
193.4375
191.9375
189.25
185.3125
179.6875
171.8125
161.1875
148.125
136.5
129.5625
125.75
122.25
118.5625
115.625
113.0
110.3125
107.5
104.8125
102.25
99.75
97.5625
95.375
93.5
91.9375
90.3125
88.75
87.4375
86.5625
85.875
85.0625
84.1875
83.125
82.0625
81.1875
80.375
79.3125
77.9375
76.5625
75.75
76.4375
81.6875
95.1875
113.8125
130.75
144.5
157.1875
168.25
176.1875
181.0
184.0625
186.4375
188.25
189.75
191.0
191.5
190.9375
189.3125
186.4375
182.125
176.0625
167.5
155.9375
142.75
132.3125
126.75
123.25
119.625
116.1875
113.5
111.1875
108.4375
105.625
103.0
100.5
98.125
95.875
93.8125
92.0625
90.375
88.6875
87.1875
85.9375
84.9375
84.125
83.5
82.8125
81.9375
80.9375
79.9375
79.125
78.25
77.125
75.6875
74.5
74.3125
76.6875
85.5625
102.1875
120.6875
135.875
148.9375
161.125
170.8125
177.1875
181.125
183.75
185.8125
187.375
188.6875
189.4375
189.4375
188.375
185.9375
182.125
176.9375
169.9375
160.0
147.3125
135.25
127.6875
123.4375
119.8125
116.3125
113.5
111.0625
108.5
105.6875
102.875
100.3125
98.0625
95.875
93.6875
91.625
89.75
88.3125
86.9375
85.5625
84.3125
83.25
82.375
81.6875
81.0625
80.3125
79.25
78.3125
77.5625
76.8125
75.875
74.5
73.3125
72.75
73.8125
80.0
94.75
113.375
129.625
143.25
155.875
166.5
173.4375
178.0625
181.125
183.375
185.0
186.4375
187.75
187.875
186.5
184.5625
181.25
176.5
170.0
161.0
149.0625
136.4375
127.6875
123.0
119.5
116.0625
112.9375
110.3125
107.8125
105.0625
102.375
99.875
97.5625
95.3125
93.1875
91.25
89.375
87.8125
86.375
84.9375
83.625
82.5
81.5
80.6875
80.1875
79.75
78.875
77.8125
77.0
76.0625
75.3125
74.375
73.0
71.9375
72.0
75.0
84.9375
102.1875
120.3125
135.0625
147.9375
159.875
169.0625
174.875
178.3125
180.875
182.8125
184.1875
185.3125
185.875
185.4375
183.8125
181.125
177.25
171.8125
164.25
153.6875
140.9375
130.0625
123.9375
120.1875
116.5
113.1875
110.5
108.125
105.625
102.8125
100.25
97.875
95.625
93.5
91.5
89.5625
87.875
86.4375
84.9375
83.625
82.375
81.3125
80.5
80.0
79.375
78.6875
77.75
76.75
75.9375
75.1875
74.1875
72.9375
71.75
71.3125
72.875
80.1875
95.625
114.125
129.875
143.125
155.3125
165.4375
172.1875
176.125
178.8125
180.8125
182.3125
183.5625
184.4375
184.375
183.1875
180.8125
177.25
172.25
165.375
155.6875
143.375
131.6875
124.4375
120.375
116.6875
113.1875
110.3125
107.9375
105.5625
103.0
100.4375
98.0
95.6875
93.5
91.4375
89.5
87.75
86.25
84.8125
83.375
82.1875
81.1875
80.3125
79.625
79.0625
78.5
77.625
76.5625
75.625
74.9375
74.125
73.0
71.75
70.9375
71.4375
76.0
88.4375
106.5
123.5625
137.375
149.8125
161.0625
169.3125
174.3125
177.375
179.5625
181.1875
182.375
183.1875
183.3125
182.5
180.625
177.75
173.5625
167.5
159.0625
147.6875
135.3125
126.3125
121.4375
117.8125
114.1875
111.0
108.5
106.1875
103.5625
100.875
98.4375
96.1875
94.0
92.0
90.0625
88.3125
86.625
85.0625
83.75
82.5
81.375
80.3125
79.5
78.9375
78.375
77.75
76.875
75.875
75.0
74.3125
73.4375
72.3125
71.125
70.4375
71.4375
77.3125
91.3125
110.0
126.4375
139.75
152.125
162.875
170.1875
174.5
177.3125
179.5625
181.125
182.3125
183.125
183.125
182.1875
180.0625
176.75
172.0
165.5625
156.625
144.9375
132.875
124.9375
120.6875
117.125
113.5625
110.6875
108.3125
105.8125
103.125
100.4375
98.0625
95.8125
93.75
91.6875
89.6875
88.0
86.5
85.0625
83.75
82.5
81.3125
80.1875
79.375
78.6875
78.125
77.5625
76.8125
75.8125
74.9375
74.25
73.5625
72.5
71.25
70.4375
70.75
74.6875
86.25
104.125
121.5625
135.5625
148.1875
159.5625
168.0625
173.3125
176.5
178.75
180.5
181.8125
182.8125
183.125
182.5
180.6875
177.625
173.5625
167.875
159.6875
148.625
136.25
126.8125
121.625
118.0
114.5
111.375
108.875
106.5625
104.125
101.5
98.9375
96.6875
94.4375
92.4375
90.4375
88.6875
87.0625
85.5625
84.3125
83.0625
81.8125
80.5625
79.5625
78.875
78.3125
77.6875
76.9375
76.125
75.1875
74.4375
73.875
73.125
72.0
70.875
70.3125
71.5625
78.0
92.5625
110.875
126.8125
140.0625
152.4375
163.0625
170.25
174.375
177.0625
179.1875
180.75
181.9375
182.75
182.75
181.625
179.5625
176.375
171.75
165.125
155.9375
143.875
132.0625
124.5
120.375
116.875
113.3125
110.3125
108.125
105.875
103.375
100.6875
98.25
96.0
93.875
91.9375
90.125
88.3125
86.6875
85.25
83.8125
82.5
81.4375
80.4375
79.6875
79.0625
78.5625
77.9375
77.125
76.0625
75.25
74.625
73.875
72.6875
71.5
70.8125
71.5
76.6875
89.625
107.875
124.5
138.0
150.4375
161.3125
169.125
173.8125
176.75
178.9375
180.5625
181.75
182.625
182.8125
181.9375
179.875
177.0
172.9375
166.625
157.9375
146.75
134.5
125.8125
121.3125
118.0
114.3125
111.25
109.0
106.6875
104.125
101.5
99.0625
96.875
94.75
92.4375
90.5
89.0625
87.5
85.8125
84.4375
83.25
82.0
80.875
80.1875
79.625
79.0625
78.4375
77.625
76.625
75.6875
75.0625
74.375
73.3125
72.125
71.125
71.25
74.3125
84.375
101.4375
119.125
133.5
146.1875
158.0
167.125
172.75
176.1875
178.625
180.5
181.8125
182.75
183.3125
183.0
181.375
178.6875
175.0
169.8125
162.4375
152.0
139.4375
128.9375
123.1875
119.625
116.125
112.8125
110.25
108.0
105.625
103.0
100.4375
98.125
95.9375
93.8125
91.75
89.9375
88.375
86.9375
85.5625
84.25
81.25
79.0625
81.375
79.75
78.5625
83.6875
82.5625
75.625
74.6875
77.75
75.9375
72.625
72.0
71.9375
71.375
72.125
76.5
87.5625
105.4375
123.875
138.5
150.3125
160.1875
167.9375
173.25
176.75
178.875
180.1875
181.625
182.875
183.0
182.25
180.6875
177.75
173.4375
167.4375
159.4375
148.5625
136.1875
126.9375
122.25
118.875
115.25
112.0
109.5625
107.25
104.6875
101.9375
99.5
97.3125
95.125
93.125
91.125
89.375
87.8125
86.375
84.875
83.625
82.375
81.25
80.375
79.6875
79.0625
78.375
77.5625
76.6875
75.75
75.0625
74.375
73.375
72.125
71.125
70.75
72.0625
78.1875
92.375
110.375
126.1875
139.25
151.25
161.375
168.1875
172.4375
175.3125
177.5625
179.375
180.625
181.4375
181.3125
180.25
178.125
174.9375
170.375
163.8125
154.375
142.25
131.0
124.5
120.875
117.25
113.6875
110.875
108.4375
105.875
103.1875
100.75
98.5
96.4375
94.4375
92.5
90.6875
88.9375
87.4375
86.0
84.6875
83.375
82.375
81.625
80.9375
80.25
79.375
78.4375
77.5
76.75
76.0
74.875
73.5625
72.4375
71.9375
72.375
76.1875
87.5625
105.125
122.0
135.5
147.5
158.0625
165.75
170.6875
173.875
176.25
178.125
179.5
180.375
180.5625
179.875
178.25
175.5
171.3125
165.25
156.5
144.8125
132.8125
125.3125
121.6875
118.375
114.6875
111.75
109.4375
107.125
104.625
102.1875
100.0
97.8125
95.6875
93.6875
91.75
90.0
88.5
87.125
85.875
84.6875
83.75
83.0625
82.4375
81.75
80.875
79.875
79.0
78.25
77.375
76.25
74.9375
73.9375
73.75
75.875
84.25
100.0625
117.875
132.8125
145.75
157.875
167.625
174.1875
178.3125
181.1875
183.5
185.3125
186.6875
187.4375
187.5625
186.8125
184.8125
181.5625
177.0625
170.75
161.875
150.0625
138.0
129.9375
125.5625
121.9375
118.375
115.4375
112.9375
110.5
107.9375
105.375
102.9375
100.5625
98.3125
96.3125
94.4375
92.6875
91.0
89.5625
88.25
87.0
85.8125
84.8125
84.0625
83.5625
82.9375
82.1875
81.3125
80.4375
79.625
78.8125
77.8125
76.5625
75.5625
75.125
76.5625
83.375
98.1875
116.375
132.25
145.5
157.75
168.25
175.6875
180.25
183.3125
185.6875
187.75
189.5
190.6875
191.0625
190.375
188.6875
185.875
181.75
175.8125
167.625
156.5
143.5625
133.1875
127.5625
124.0
120.3125
116.875
114.1875
111.8125
109.25
106.4375
103.875
101.5
99.25
97.0
95.0
93.125
91.4375
89.875
88.375
87.125
85.9375
84.8125
83.9375
83.3125
82.6875
81.9375
81.0
80.0
79.1875
78.3125
77.3125
76.0
74.8125
74.25
74.625
78.0625
88.6875
105.625
122.625
136.6875
149.25
160.375
168.6875
174.125
177.75
180.625
183.0
184.9375
186.1875
186.875
186.875
185.625
183.0625
179.375
174.3125
167.0625
156.6875
144.0625
133.5
127.6875
123.9375
120.0625
116.5
113.75
111.3125
108.8125
106.25
103.75
101.5
99.375
97.1875
95.1875
93.5
91.8125
90.1875
88.6875
87.4375
86.4375
85.5625
84.75
83.9375
83.0
82.125
81.25
80.5
79.5
78.0625
76.75
75.8125
75.375
76.0625
81.125
94.1875
111.8125
127.8125
140.75
152.4375
162.1875
169.1875
173.75
176.9375
179.4375
181.4375
183.0
183.875
184.0
183.1875
181.375
178.25
173.6875
166.875
157.0625
144.6875
133.875
128.0
124.4375
120.6875
117.1875
114.5625
112.25
109.75
107.0625
104.625
102.3125
100.125
98.0
96.0625
94.3125
92.6875
91.1875
89.8125
88.5625
87.5625
86.8125
86.125
85.4375
84.6875
83.8125
82.875
82.125
81.25
80.1875
78.9375
78.0
77.5625
78.6875
84.6875
98.5625
116.5
132.5625
146.0625
158.5
169.25
177.0
182.0
185.4375
188.25
190.625
192.5625
193.9375
194.625
194.3125
192.9375
190.375
186.5
181.0625
173.5
162.9375
150.3125
139.4375
133.125
129.3125
125.6875
122.1875
119.375
116.875
114.1875
111.375
108.5625
106.0625
103.6875
101.375
99.1875
97.0625
95.0
93.0625
91.375
89.8125
88.3125
87.1875
86.25
85.4375
84.625
83.8125
82.875
81.75
80.75
79.6875
78.5
77.125
76.0
75.4375
76.125
80.625
92.6875
110.1875
126.75
140.5625
153.1875
164.125
172.0625
177.1875
180.9375
183.9375
186.4375
188.4375
190.0625
191.1875
191.125
189.875
187.6875
184.1875
178.9375
171.625
161.5625
148.9375
137.3125
130.625
127.1875
123.75
120.125
117.3125
114.9375
112.4375
109.75
107.0625
104.6875
102.4375
100.1875
98.125
96.3125
94.625
93.125
91.75
90.625
89.75
88.875
88.0
87.0
85.8125
84.875
84.125
83.0
81.5
80.0625
79.0625
78.625
79.125
83.5625
95.875
113.6875
129.9375
142.75
154.125
164.125
171.375
176.1875
179.625
182.25
184.25
185.9375
187.1875
187.75
187.25
185.5
182.5625
178.125
171.625
162.1875
149.9375
138.5
131.75
128.25
124.625
120.875
118.0625
115.75
113.125
110.375
107.6875
105.1875
102.875
100.5625
98.5625
96.8125
95.125
93.375
92.0
90.8125
89.8125
88.9375
88.25
87.625
86.6875
85.625
84.75
83.875
82.6875
81.375
80.25
79.5
79.625
83.25
94.3125
111.3125
128.1875
142.5
155.4375
166.9375
175.625
181.4375
185.375
188.25
190.6875
192.75
194.4375
195.4375
195.5625
194.5
192.375
189.0
184.125
177.0625
167.1875
154.6875
142.875
135.4375
131.375
127.75
124.25
121.3125
118.875
116.25
113.4375
110.625
108.0
105.5625
103.375
101.1875
99.1875
97.4375
95.9375
94.4375
93.0
91.75
90.875
90.1875
89.25
88.1875
86.9375
85.75
84.875
84.0625
83.0
81.5625
80.0
78.625
79.375
85.4375
99.1875
116.75
132.5625
145.8125
157.75
167.8125
175.3125
180.3125
183.6875
186.375
188.875
191.0
192.375
192.9375
192.5
190.875
188.0
184.1875
178.6875
170.625
159.25
146.25
136.1875
131.1875
127.875
124.1875
120.75
118.0625
115.375
112.5625
109.8125
107.25
104.8125
102.5625
100.375
98.375
96.625
94.9375
93.375
92.0
90.875
90.0
89.1875
88.375
87.375
86.125
85.0
84.125
83.125
81.6875
80.25
79.3125
78.875
79.375
84.5
97.6875
115.4375
131.375
144.0625
155.375
165.25
172.25
176.8125
180.0625
182.625
184.6875
186.4375
187.5
187.875
187.125
185.0625
181.75
176.8125
169.375
158.6875
145.8125
135.625
130.75
127.5
123.625
120.25
117.9375
115.5625
112.9375
110.1875
107.6875
105.375
103.1875
101.1875
99.4375
97.8125
96.1875
94.5625
93.25
92.25
91.3125
90.4375
89.3125
88.625
87.8125
85.8125
84.6875
83.9375
82.1875
81.5
81.5625
81.5
85.9375
98.875
116.4375
132.125
145.25
157.75
168.25
175.875
181.25
184.875
187.3125
188.875
191.4375
192.5
192.125
192.4375
191.6875
188.5
184.0625
178.625
170.0
157.6875
145.125
136.625
132.1875
128.5
124.8125
121.875
119.375
116.875
114.25
111.4375
108.75
106.3125
104.0
101.75
99.625
97.875
96.3125
94.875
93.5625
92.3125
91.3125
90.5625
89.875
89.25
88.4375
87.3125
86.25
85.25
84.25
83.0625
81.875
81.3125
82.375
88.0625
101.8125
120.0
135.25
148.1875
161.9375
174.25
181.375
185.8125
189.875
192.9375
195.0
196.875
198.5625
199.5625
199.375
198.0
195.75
191.625
185.75
178.1875
167.75
154.5625
142.6875
136.0
132.3125
128.5625
124.625
121.25
116.6875
106.0625
103.5625
114.1875
112.75
100.6875
98.625
106.875
110.5
104.25
93.8125
93.8125
105.375
91.25
66.0
73.0
94.3125
94.6875
85.8125
82.75
82.3125
82.0625
81.5625
80.0
78.9375
79.0625
79.75
83.0625
94.375
111.9375
128.875
142.875
155.375
165.9375
173.9375
179.3125
182.9375
185.8125
188.3125
190.5625
192.4375
193.8125
193.6875
191.9375
189.4375
185.8125
180.625
173.0625
161.8125
148.5
137.75
132.25
129.3125
125.875
122.25
119.4375
116.8125
114.1875
111.75
108.9375
105.875
103.75
101.875
99.8125
98.1875
96.8125
94.6875
93.0
92.3125
91.625
90.625
89.375
88.0
87.375
86.625
84.875
83.375
82.25
81.3125
81.0
82.125
88.3125
102.375
119.625
134.875
148.6875
161.4375
170.5
176.5
181.625
185.5
188.3125
190.5625
191.6875
192.375
193.25
192.75
191.0625
188.3125
184.0
177.25
167.375
154.9375
142.8125
135.3125
131.25
127.5
123.75
120.75
118.4375
116.0
113.125
110.3125
107.625
105.0625
102.75
100.625
98.75
97.0625
95.3125
93.8125
92.5625
91.375
90.4375
89.625
88.9375
88.125
87.1875
86.1875
85.1875
84.1875
83.0
81.6875
80.5625
80.25
81.875
89.25
104.4375
122.5625
138.1875
151.625
164.0
174.25
181.375
186.0625
189.4375
192.125
194.4375
196.5
198.125
198.75
198.0625
196.3125
193.375
189.0
183.0625
174.8125
163.5
150.25
139.8125
134.3125
130.75
127.0
123.6875
121.0
118.3125
115.375
112.5
109.75
107.0625
104.6875
102.4375
100.375
98.3125
96.5625
94.9375
93.5625
92.375
91.375
90.5625
89.75
88.8125
87.625
86.4375
85.3125
84.0625
82.5625
81.0625
79.8125
79.4375
81.1875
88.8125
103.875
121.375
136.5625
149.6875
161.75
171.625
178.4375
182.875
185.9375
188.4375
190.625
192.5
193.875
194.4375
193.8125
191.9375
188.875
184.3125
177.9375
168.875
156.75
143.75
134.8125
130.5
127.0625
123.25
120.0625
117.5
115.125
112.375
109.4375
106.6875
104.3125
102.0625
99.8125
97.75
96.0
94.375
93.0
91.9375
90.9375
90.0625
88.9375
87.75
