0
""
""
""
""
""
""
""
""
""
""
""
""
""
""
""
""
""
""
""
""
""
""
""
""
""
""
""
""
""
""
""
""
""
""
""
""
""
""
""
""
""
""
""
""
""
""
""
""
""
""
""
""
""
""
""
""
""
""
""
""
""
""
""
""
""
""
""
""
""
""
""
""
""
""
""
""
""
""
""
""
""
""
""
""
""
""
""
""
""
""
""
""
""
""
""
""
""
""
""
""
""
""
""
""
""
""
""
""
""
""
""
""
""
""
""
""
""
""
""
""
""
""
""
""
""
""
""
""
""
""
""
""
""
""
""
""
""
""
""
""
""
""
""
""
""
""
""
""
""
""
""
""
""
""
""
""
""
""
""
""
""
""
""
""
""
""
""
""
""
""
""
""
""
""
""
""
""
""
""
""
""
""
""
""
""
""
""
""
""
""
""
""
""
""
""
""
""
""
""
""
""
""
""
""
""
""
""
""
""
""
""
""
""
""
""
""
""
""
""
""
""
""
""
""
""
""
""
""
""
""
""
""
""
""
""
""
""
""
""
""
""
""
""
""
""
""
""
""
""
""
""
""
""
""
""
""
29.0
29.0625
29.0625
29.0
28.9375
28.9375
29.0
29.0
28.9375
28.9375
29.0
29.0
29.125
29.1875
29.125
29.0
28.875
28.875
29.0
29.0
28.875
28.875
28.9375
28.9375
28.875
28.75
28.75
28.75
28.8125
28.875
28.9375
28.9375
28.875
28.8125
28.8125
28.75
28.75
28.75
28.75
28.75
28.8125
28.8125
28.8125
28.8125
28.8125
28.875
28.875
28.875
28.875
28.8125
28.75
28.75
28.75
28.8125
28.8125
28.6875
28.5625
28.625
28.375
28.375
29.0625
29.75
29.6875
29.0
28.4375
28.625
29.0625
29.1875
28.9375
28.75
28.875
29.1875
29.375
29.4375
29.0625
28.875
28.875
28.875
28.8125
28.875
28.9375
28.9375
28.9375
29.0625
29.1875
29.3125
29.4375
29.25
28.9375
28.875
28.9375
29.0
28.9375
28.8125
28.8125
28.9375
29.0
29.0
29.0
28.9375
29.0
28.9375
28.875
28.8125
28.8125
28.875
28.9375
29.0
28.875
28.75
28.6875
28.75
28.875
29.0625
29.0
28.875
28.875
28.875
28.75
28.6875
28.6875
28.6875
28.625
28.625
28.6875
28.875
28.875
28.8125
28.75
28.6875
28.75
28.75
28.8125
28.8125
28.875
28.875
28.625
28.5
28.8125
29.0
28.9375
28.6875
28.6875
28.9375
29.25
29.3125
29.25
29.25
29.125
29.0
28.75
28.6875
28.625
28.625
28.6875
28.8125
28.9375
29.0
29.125
29.0
28.8125
28.625
28.5625
28.5625
28.5
28.375
28.125
28.1875
28.375
28.3125
28.0625
28.0625
28.5625
29.1875
29.5
29.5
29.375
29.0625
28.6875
28.1875
27.75
27.4375
27.3125
27.4375
27.8125
28.3125
28.875
29.3125
29.5625
29.6875
29.75
29.5625
29.125
28.625
28.375
28.375
28.3125
28.125
27.875
27.9375
28.1875
28.4375
28.625
28.8125
28.9375
29.0625
29.0
28.875
28.5625
28.375
28.3125
28.25
28.25
28.1875
28.1875
28.25
28.5
28.8125
29.1875
29.3125
29.375
29.25
29.0625
28.75
28.5
28.4375
28.5625
28.625
28.5
28.4375
28.5625
28.75
29.0
29.1875
29.375
29.5
29.625
29.5625
29.4375
29.3125
29.125
28.9375
28.8125
28.75
28.5625
28.5625
28.75
29.0625
29.4375
29.5625
29.5
29.375
29.125
28.6875
28.25
27.9375
27.8125
27.875
28.125
28.4375
28.8125
29.0
29.125
29.0
28.875
28.6875
28.5
28.25
28.1875
28.125
28.125
28.125
28.3125
28.4375
28.5
28.5
28.4375
28.375
28.3125
28.3125
28.375
28.5625
28.8125
28.875
28.875
28.8125
28.875
29.0
28.875
28.6875
28.625
28.5625
28.5625
28.5
28.5
28.5
28.5625
28.625
28.625
28.625
28.5
28.375
28.375
28.375
28.5
28.5625
28.5
28.4375
28.4375
28.5
28.5
28.625
28.75
28.75
28.75
28.6875
28.625
28.625
28.875
29.0
28.9375
28.875
28.875
28.9375
29.0
28.9375
28.9375
28.9375
28.9375
29.0
28.9375
28.9375
28.875
28.8125
28.8125
28.8125
28.75
28.6875
28.6875
28.75
28.75
28.75
28.6875
28.625
28.625
28.5625
28.5625
28.5
28.4375
28.4375
28.5
28.5
28.5625
28.625
28.5625
28.5
28.5
28.5625
28.4375
28.25
28.1875
28.1875
28.375
28.5
28.4375
28.375
28.375
28.375
28.375
28.375
28.3125
28.375
28.4375
28.4375
28.4375
28.4375
28.5
28.5
28.5625
28.5625
28.5625
28.625
28.75
28.75
28.75
28.75
28.75
28.75
28.75
28.75
28.75
28.75
28.8125
28.875
28.875
28.875
28.875
29.0
29.0
29.0625
29.0
28.875
28.6875
28.625
28.6875
28.75
28.8125
28.8125
28.8125
28.8125
28.8125
28.6875
28.5625
28.4375
28.4375
28.5
28.5625
28.5625
28.625
28.5625
28.5625
28.5
28.5
28.5
28.4375
28.4375
28.4375
28.4375
28.4375
28.5
28.4375
28.4375
28.4375
28.4375
28.4375
28.4375
28.4375
28.375
28.375
28.375
28.375
28.4375
28.5
28.4375
28.4375
28.4375
28.4375
28.4375
28.5
28.5625
28.5625
28.5625
28.5625
28.5625
28.625
28.625
28.6875
28.6875
28.6875
28.75
28.75
28.6875
28.75
28.75
28.8125
28.75
28.6875
28.6875
28.75
28.75
28.75
28.75
28.75
28.75
28.75
28.75
28.6875
28.6875
28.625
28.6875
28.6875
28.6875
28.6875
28.6875
28.625
28.625
28.5625
28.5625
28.5625
28.625
28.5625
28.5625
28.5625
28.5625
28.5
28.5
28.5
28.5
28.5
28.4375
28.4375
28.4375
28.4375
28.4375
28.4375
28.5
28.5
28.5
28.5
28.5
28.5
28.5
28.5
28.5625
28.5
28.5
28.5
28.5625
28.5625
28.5625
28.5
28.5
28.5625
28.5625
28.5
28.5
28.5
28.5625
28.5625
28.5625
28.5625
28.5625
28.625
28.625
28.625
28.625
28.625
28.6875
28.6875
28.625
28.625
28.625
28.625
28.625
28.625
28.625
28.6875
28.6875
28.6875
28.6875
28.625
28.625
28.625
28.625
28.5625
28.5625
28.5625
28.625
28.625
28.625
28.625
28.625
28.625
28.625
28.625
28.5
28.4375
28.4375
28.4375
28.4375
28.4375
28.5625
28.5625
28.5625
28.5625
28.5625
28.5
28.4375
28.4375
28.375
28.3125
28.25
28.25
28.25
28.25
28.25
28.3125
28.4375
28.5
28.5625
28.625
28.625
28.625
28.625
28.625
28.6875
28.625
28.4375
28.25
28.3125
28.5625
28.75
28.6875
28.625
28.5625
28.6875
28.8125
28.8125
28.625
28.5
28.375
28.5
28.5625
28.5
28.4375
28.3125
28.25
28.3125
28.5625
28.8125
28.75
28.5625
28.375
28.375
28.4375
28.4375
28.4375
28.5
28.5625
28.6875
28.6875
28.6875
28.625
28.5625
28.5625
28.5625
28.5625
28.5625
28.5625
28.5
28.5
28.5625
28.625
28.625
28.625
28.625
28.6875
28.6875
28.625
28.5625
28.5625
28.5625
28.5625
28.5
28.5
28.5625
28.5
28.5
28.5625
28.5625
28.5625
28.625
28.625
28.5625
28.5
28.5
28.4375
28.375
28.375
28.375
28.375
28.4375
28.4375
28.5
28.5
28.5625
28.5625
28.5
28.5
28.5
28.5
28.4375
28.4375
28.4375
28.4375
28.4375
28.4375
28.5
28.5
28.5625
28.5625
28.5
28.5625
28.5
28.5
28.5
28.4375
28.4375
28.4375
28.4375
28.4375
28.5
28.5625
28.625
28.625
28.5625
28.625
28.625
28.5625
28.5625
28.5625
28.5
28.5
28.5625
28.5625
28.5625
28.625
28.625
28.625
28.5625
28.5625
28.5625
28.5625
28.5
28.4375
28.4375
28.5
28.5
28.5
28.5625
28.5625
28.625
28.625
28.625
28.5625
28.5
28.5
28.5
28.5
28.4375
28.4375
28.4375
28.5
28.5
28.5625
28.5625
28.5625
28.5625
28.5625
28.5625
28.5
28.5
28.5
28.4375
28.5
28.5
28.5
28.5
28.5
28.5625
28.5
28.4375
28.4375
28.4375
28.4375
28.4375
28.5
28.4375
28.4375
28.4375
28.4375
28.4375
28.4375
28.4375
28.5
28.4375
28.4375
28.375
28.375
28.4375
28.4375
28.4375
28.4375
28.5
28.5
28.5
28.5
28.5625
28.625
28.625
28.5
28.5
28.5
28.5
28.5
28.5
28.5
28.5625
28.5625
28.625
28.5625
28.5625
28.5
28.5
28.5
28.4375
28.4375
28.4375
28.5
28.5
28.6875
28.8125
28.9375
29.0625
29.125
29.25
29.3125
29.375
29.4375
29.5
29.5625
29.5625
29.625
29.6875
29.75
29.875
29.9375
30.0
30.0
30.0625
30.125
30.0625
30.0625
30.0625
30.0625
30.0625
30.0625
30.0625
30.0625
30.125
30.125
30.125
30.125
30.1875
30.125
30.0625
30.0
30.0
30.0
30.0
29.9375
29.9375
30.0
30.0
30.0
30.0
30.0
30.0
30.0
29.9375
29.9375
29.9375
29.9375
29.875
29.8125
29.8125
29.8125
29.875
29.8125
29.8125
29.8125
29.8125
29.8125
29.8125
29.75
29.75
29.6875
29.625
29.5625
29.625
29.625
29.625
29.6875
29.6875
29.6875
29.6875
29.6875
29.6875
29.6875
29.6875
29.6875
29.625
29.625
29.625
29.625
29.625
29.5625
29.5625
29.625
29.625
29.625
29.5625
29.5625
29.5
29.5
29.5
29.5
29.5
29.5
29.5
29.5
29.5625
29.5
29.5
29.4375
29.4375
29.4375
29.4375
29.375
29.375
29.375
29.4375
29.4375
29.4375
29.4375
29.5
29.4375
29.4375
29.375
29.375
29.375
29.3125
29.3125
29.375
29.375
29.375
29.375
29.375
29.375
29.375
29.375
29.3125
29.3125
29.3125
29.3125
29.3125
29.3125
29.3125
29.3125
29.3125
29.3125
29.3125
29.3125
29.3125
29.375
29.3125
29.3125
29.25
29.3125
29.3125
29.25
29.25
29.25
29.3125
29.3125
29.3125
29.375
29.3125
29.3125
29.3125
29.3125
29.3125
29.25
29.25
29.25
29.25
29.25
29.3125
29.3125
29.25
29.25
29.25
29.25
29.25
29.25
29.25
29.25
29.25
29.25
29.1875
29.1875
29.1875
29.25
29.25
29.25
29.25
29.25
29.25
29.25
29.25
29.25
29.25
29.1875
29.1875
29.1875
29.1875
29.1875
29.25
29.25
29.25
29.25
29.25
29.25
29.1875
29.1875
29.1875
29.1875
29.1875
29.1875
29.1875
29.1875
29.1875
29.1875
29.1875
29.1875
29.1875
29.1875
29.1875
29.1875
29.125
29.125
29.0625
29.0625
29.125
29.125
29.125
29.125
29.1875
29.1875
29.1875
29.1875
29.1875
29.1875
29.1875
29.125
29.125
29.0625
29.0625
29.0625
29.0625
29.0625
29.0625
29.125
29.125
29.125
29.125
29.125
29.125
29.0625
29.0625
29.0625
29.0625
29.0625
29.0625
29.0625
29.0625
29.0625
29.0625
29.125
29.125
29.125
29.0625
29.0
29.0
29.0
29.0
29.0
29.0
29.0
29.0
29.0625
29.0625
29.0625
29.0625
29.0625
29.125
29.0625
29.0
29.0
29.0
29.0
29.0
29.0
29.0
29.0
29.0625
29.0625
29.0625
29.0625
29.0625
29.0
29.0
29.0
29.0
28.9375
28.9375
29.0
29.0
29.0
29.0
29.0625
29.0625
29.0625
29.0625
29.0625
28.9375
28.9375
28.875
28.875
28.9375
28.9375
28.9375
29.0
29.0
29.0
29.0
29.0
29.0
29.0
29.0
29.0
28.9375
28.9375
28.9375
29.0
28.9375
28.9375
28.9375
29.0
29.0
29.0
28.9375
28.9375
28.9375
28.9375
28.9375
28.9375
28.9375
28.9375
28.9375
28.9375
28.9375
29.0
29.0
28.9375
29.0
29.0625
29.0
28.9375
28.9375
28.9375
28.9375
28.9375
28.9375
28.9375
28.9375
28.9375
28.9375
28.9375
28.9375
28.9375
28.9375
28.9375
28.9375
28.875
28.875
28.875
28.875
28.875
28.9375
28.9375
28.9375
29.0
28.9375
28.875
28.875
28.875
28.875
28.875
28.875
28.875
28.875
28.875
28.875
28.9375
28.9375
29.0
28.9375
28.9375
28.9375
28.9375
28.875
28.875
28.875
28.875
28.9375
28.9375
28.9375
28.9375
28.9375
28.875
28.875
28.8125
28.875
28.875
28.8125
28.8125
28.8125
28.75
28.8125
28.8125
28.875
28.875
28.875
28.9375
28.9375
28.875
28.875
28.9375
28.875
28.875
28.875
28.875
28.875
28.9375
28.9375
29.0
28.9375
28.9375
29.0
28.9375
28.9375
28.9375
28.875
28.875
28.875
28.875
28.875
28.875
28.875
28.9375
28.9375
28.875
28.875
28.875
28.875
28.8125
28.8125
28.8125
28.8125
28.8125
28.8125
28.875
28.875
28.875
28.875
28.9375
28.875
28.875
28.8125
28.8125
28.8125
28.8125
28.75
28.75
28.75
28.875
28.875
28.9375
28.9375
28.9375
28.9375
28.875
28.875
28.875
28.8125
28.8125
28.8125
28.875
28.875
28.875
28.875
28.8125
28.875
28.8125
28.8125
28.8125
28.8125
28.75
28.75
28.75
28.75
28.75
28.8125
28.8125
28.8125
28.8125
28.8125
28.8125
28.875
28.8125
28.8125
28.75
28.75
28.75
28.6875
28.6875
28.75
28.8125
28.8125
28.8125
28.875
28.875
28.875
28.8125
28.8125
28.8125
28.8125
28.8125
28.75
28.75
28.75
28.75
28.75
28.8125
28.8125
28.875
28.875
28.875
28.875
28.8125
28.8125
28.8125
28.75
28.75
28.75
28.75
28.75
28.75
28.75
28.75
28.8125
28.875
28.8125
28.75
28.75
28.75
28.75
28.6875
28.6875
28.6875
28.6875
28.75
28.75
28.75
28.8125
28.8125
28.875
28.875
28.875
28.875
28.8125
28.75
28.6875
28.6875
28.75
28.75
28.6875
28.6875
28.75
28.8125
28.8125
28.8125
28.8125
28.75
28.75
28.6875
28.625
28.625
28.625
28.6875
28.6875
28.75
28.75
28.8125
28.8125
28.875
28.875
28.8125
28.75
28.6875
28.625
28.625
28.625
28.625
28.625
28.625
28.625
28.6875
28.75
28.75
28.75
28.8125
28.75
28.75
28.75
28.6875
28.6875
28.6875
28.625
28.625
28.6875
28.75
28.75
28.75
28.75
28.75
28.75
28.6875
28.6875
28.625
28.5
28.5
28.5625
28.5625
28.625
28.6875
28.75
28.8125
28.8125
28.8125
28.75
28.75
28.6875
28.6875
28.6875
28.6875
28.6875
28.625
28.6875
28.6875
28.75
28.8125
28.75
28.75
28.75
28.75
28.6875
28.625
28.625
28.6875
28.6875
28.6875
28.75
28.75
28.8125
28.8125
28.75
28.6875
28.6875
28.625
28.5625
28.5
28.5
28.5625
28.5625
28.625
28.625
28.625
28.6875
28.6875
28.6875
28.6875
28.625
28.625
28.6875
28.625
28.5625
28.5625
28.625
28.625
28.5625
28.5625
28.625
28.625
28.625
28.6875
28.75
28.75
28.75
28.75
28.75
28.75
28.75
28.75
28.75
28.6875
28.6875
28.625
28.6875
28.6875
28.6875
28.75
28.8125
28.75
28.75
28.75
28.75
28.6875
28.625
28.625
28.5625
28.5
28.5
28.5
28.5
28.5
28.5625
28.5625
28.6875
28.6875
28.6875
28.6875
28.625
28.5625
28.5
28.5
28.5
28.4375
28.4375
28.5
28.5
28.5625
28.625
28.6875
28.75
28.8125
28.8125
28.8125
28.8125
28.75
28.6875
28.625
28.5625
28.5
28.5
28.5
28.5
28.5
28.5
28.5625
28.6875
28.75
28.8125
28.8125
28.75
28.625
28.5625
28.5625
28.5
28.375
28.375
28.5
28.5625
28.625
28.6875
28.75
28.75
28.8125
28.6875
28.5625
28.5
28.4375
28.375
28.3125
28.3125
28.3125
28.375
28.4375
28.5625
28.625
28.6875
28.6875
28.75
28.75
28.6875
28.625
28.5625
28.5625
28.5625
28.5625
28.5625
28.5625
28.625
28.6875
28.75
28.75
28.8125
28.75
28.6875
28.625
28.5625
28.5625
28.5
28.4375
28.4375
28.5
28.5
28.5
28.5
28.5625
28.5625
28.5625
28.5625
28.625
28.5625
28.5
28.5
28.4375
28.375
28.375
28.375
28.375
28.5
28.5625
28.625
28.6875
28.75
28.75
28.6875
28.625
28.625
28.5625
28.5625
28.6875
28.75
28.625
28.4375
28.4375
28.5
28.625
28.625
28.5625
28.5
28.5625
28.5625
28.5625
28.4375
28.375
28.375
28.4375
28.5
28.5
28.5625
28.5625
28.5625
28.5625
28.5625
28.4375
28.375
28.375
28.375
28.375
28.375
28.375
28.375
28.5
28.5
28.5
28.5
28.5
28.5
28.4375
28.4375
28.375
28.375
28.375
28.4375
28.4375
28.4375
28.4375
28.5
28.5
28.5625
28.5625
28.5625
28.5625
28.5625
28.5625
28.5625
28.5625
28.5625
28.5625
28.5625
28.625
28.625
28.5625
28.5625
28.5
28.5625
28.5
28.5
28.5
28.5
28.4375
28.4375
28.4375
28.5
28.5
28.5
28.5
28.5
28.4375
28.4375
28.4375
28.4375
28.4375
28.375
28.375
28.4375
28.4375
28.4375
28.4375
28.375
28.375
28.4375
28.4375
28.4375
28.4375
28.4375
28.375
28.375
28.4375
28.4375
28.4375
28.4375
28.4375
28.4375
28.5
28.5
28.5
28.5
28.5
28.5
28.5
28.5
28.5
28.5
28.5
28.5
28.5
28.5
28.4375
28.4375
28.4375
28.375
28.375
28.4375
28.5
28.5
28.4375
28.4375
28.4375
28.375
28.375
28.4375
28.4375
28.5
28.5
28.5625
28.5
28.5
28.5
28.5
28.4375
28.4375
28.4375
28.5
28.5
28.5
28.5
28.5
28.5
28.5
28.5
28.5
28.5
28.5
28.5
28.4375
28.4375
28.375
28.375
28.4375
28.4375
28.4375
28.4375
28.4375
28.4375
28.4375
28.4375
28.4375
28.4375
28.4375
28.4375
28.4375
28.4375
28.4375
28.4375
28.4375
28.4375
28.4375
28.4375
28.4375
28.5
28.5
28.4375
28.4375
28.4375
28.4375
28.5
28.5
28.4375
28.4375
28.5
28.4375
28.4375
28.5
28.4375
28.4375
28.5
28.4375
28.4375
28.4375
28.4375
28.4375
28.5
28.5
28.5
28.5
28.4375
28.4375
28.5
28.4375
28.4375
28.4375
28.4375
28.4375
28.4375
28.4375
28.4375
28.4375
28.4375
28.4375
28.4375
28.4375
28.4375
28.4375
28.4375
28.4375
28.4375
28.4375
28.4375
28.4375
28.4375
28.4375
28.4375
28.4375
28.4375
28.375
28.375
28.375
28.375
28.4375
28.4375
28.375
28.4375
28.4375
28.4375
28.4375
28.4375
28.4375
28.4375
28.4375
28.4375
28.4375
28.4375
28.4375
28.4375
28.4375
28.4375
28.375
28.375
28.375
28.4375
28.4375
28.5
28.5
28.4375
28.4375
28.4375
28.4375
28.4375
28.5
28.5
28.5
28.5
28.5
28.5
28.5625
28.5625
28.5625
28.5625
28.5625
28.5
28.4375
28.4375
28.375
28.375
28.375
28.375
28.375
28.375
28.375
28.375
28.375
28.375
28.3125
28.3125
28.3125
28.3125
28.375
28.375
28.4375
28.5
28.5
28.5625
28.5625
28.625
28.625
28.625
28.5625
28.5625
28.5
28.5
28.5
28.5
28.5
28.5
28.5
28.5
28.5
28.4375
28.4375
28.375
28.3125
28.25
28.25
28.25
28.3125
28.3125
28.375
28.4375
28.5
28.5
28.5
28.5
28.5
28.4375
28.4375
28.4375
28.4375
28.375
28.4375
28.4375
28.4375
28.4375
28.4375
28.5
28.5
28.5
28.5
28.5
28.4375
28.4375
28.4375
28.4375
28.4375
28.4375
28.5
28.5
28.5625
28.5
28.5
28.4375
28.4375
28.4375
28.4375
28.4375
28.375
28.375
28.375
28.375
28.375
28.4375
28.4375
28.375
28.4375
28.5
28.5
28.5
28.5
28.5
28.5
28.5
28.4375
28.4375
28.4375
28.4375
28.4375
28.5
28.5
28.4375
28.4375
28.4375
28.4375
28.4375
28.4375
28.4375
28.375
28.375
28.3125
28.3125
28.375
28.375
28.375
28.4375
28.4375
28.5625
28.6875
28.8125
28.8125
28.875
28.9375
29.0625
29.1875
29.3125
29.375
29.5
29.5625
29.6875
29.75
29.8125
29.875
29.875
29.9375
29.875
29.875
29.875
29.9375
29.9375
29.9375
30.0
30.0
30.0
30.0625
30.0625
30.0625
30.0625
29.9375
29.9375
29.9375
29.875
29.875
29.9375
30.0
30.0
30.0
30.0625
30.0625
30.0625
30.0625
30.0625
30.0
29.9375
29.875
29.8125
29.8125
29.8125
29.75
29.75
29.8125
29.75
29.8125
29.9375
29.9375
29.875
29.875
29.875
29.75
29.6875
29.5625
29.5625
29.5625
29.5
29.5625
29.5625
29.5625
29.625
29.6875
29.75
29.75
29.625
29.625
29.5625
29.5
29.5
29.4375
29.5
29.5
29.5
29.5625
29.625
29.625
29.625
29.625
29.625
29.5625
29.5
29.4375
29.4375
29.375
29.375
29.3125
29.375
29.4375
29.5
29.5
29.5
29.5
29.5
29.4375
29.4375
29.375
29.3125
29.25
29.25
29.3125
29.3125
29.375
29.375
29.375
29.4375
29.4375
29.4375
29.375
29.375
29.3125
29.3125
29.25
29.25
29.1875
29.1875
29.25
29.3125
29.3125
29.3125
29.3125
29.3125
29.375
29.3125
29.3125
29.25
29.25
29.25
29.1875
29.1875
29.25
29.3125
29.3125
29.3125
29.3125
29.3125
29.3125
29.3125
29.3125
29.3125
29.25
29.25
29.25
29.25
29.25
29.1875
29.1875
29.25
29.25
29.25
29.1875
29.1875
29.1875
29.1875
29.1875
29.1875
29.125
29.125
29.125
29.1875
29.1875
29.1875
29.1875
29.1875
29.1875
29.1875
29.125
29.125
29.125
29.125
29.125
29.125
29.1875
29.1875
29.1875
29.1875
29.1875
29.25
29.25
29.1875
29.1875
29.1875
29.1875
29.1875
29.125
29.125
29.1875
29.125
29.125
29.125
29.1875
29.125
29.125
29.125
29.125
29.0625
29.0625
29.125
29.0625
29.0625
29.0625
29.0625
29.0625
29.125
29.125
29.125
29.125
29.125
29.125
29.125
29.125
29.0625
29.125
29.0625
29.0625
29.125
29.125
29.0625
29.0625
29.125
29.125
29.125
29.125
29.125
29.125
29.125
29.125
29.0625
29.0625
29.0625
29.0625
29.0625
29.0625
29.0625
29.0625
29.0625
29.0625
29.125
29.125
29.0625
29.0625
29.0625
29.0
29.0
28.9375
28.9375
28.9375
29.0
29.0
29.0
29.0625
29.0625
29.0625
29.0
29.0
29.0
29.0
29.0
29.0
28.9375
28.9375
28.9375
28.875
28.9375
28.9375
29.0
29.0625
29.0625
29.0
29.0
29.0
29.0
29.0
29.0
29.0
29.0
29.0
29.0
29.0
29.0625
29.0625
29.0625
29.0
29.0
29.0
28.9375
28.9375
28.875
28.875
28.875
28.9375
28.9375
28.9375
29.0
28.9375
28.9375
28.9375
28.9375
28.9375
28.9375
28.9375
28.9375
28.9375
28.9375
28.875
28.9375
28.9375
28.875
28.875
28.9375
29.0
29.0
28.9375
28.9375
28.875
28.875
28.875
28.875
28.875
28.875
28.9375
28.9375
28.9375
28.9375
28.875
28.9375
28.9375
28.9375
28.875
28.875
28.875
28.875
28.875
28.875
28.875
28.875
28.875
28.875
28.875
28.9375
28.9375
28.875
28.875
28.875
28.875
28.875
28.875
28.8125
28.8125
28.8125
28.875
28.9375
28.9375
29.0
28.9375
28.9375
28.9375
28.9375
28.875
28.875
28.8125
28.8125
28.8125
28.8125
28.8125
28.8125
28.875
28.9375
29.0
29.0
28.9375
28.9375
28.8125
28.8125
28.8125
28.8125
28.8125
28.8125
28.8125
28.8125
28.875
28.875
28.875
28.9375
28.9375
28.9375
28.9375
28.875
28.875
28.8125
28.8125
28.8125
28.75
28.75
28.8125
28.875
28.875
28.875
28.9375
28.9375
28.875
28.8125
28.8125
28.75
28.75
28.75
28.75
28.75
28.75
28.75
28.8125
28.875
28.8125
28.8125
28.8125
28.8125
28.75
28.75
28.75
28.75
28.8125
28.8125
28.8125
28.875
28.875
28.875
28.875
28.875
28.875
28.875
28.8125
28.8125
28.75
28.75
28.8125
28.8125
28.875
28.875
28.875
28.875
28.8125
28.875
28.75
28.6875
28.6875
28.6875
28.6875
28.6875
28.75
28.75
28.75
28.75
28.8125
28.875
28.875
28.875
28.8125
28.8125
28.8125
28.75
28.75
28.75
28.75
28.75
28.8125
28.8125
28.875
28.9375
28.875
28.8125
28.8125
28.8125
28.8125
28.8125
28.75
28.75
28.75
28.75
28.75
28.75
28.75
28.8125
28.8125
28.8125
28.8125
28.75
28.75
28.75
28.75
28.6875
28.625
28.6875
28.6875
28.6875
28.75
28.75
28.8125
28.8125
28.8125
28.8125
28.8125
28.8125
28.8125
28.8125
28.75
28.6875
28.6875
28.75
28.6875
28.6875
28.6875
28.6875
28.75
28.75
28.75
28.75
28.75
28.75
28.6875
28.6875
28.75
28.75
28.75
28.6875
28.6875
28.75
28.75
28.75
28.8125
28.8125
28.8125
28.75
28.75
28.8125
28.8125
28.75
28.6875
28.6875
28.6875
28.6875
28.6875
28.6875
28.6875
28.6875
28.6875
28.75
28.75
28.75
28.75
28.75
28.75
28.75
28.6875
28.625
28.625
28.6875
28.75
28.75
28.75
28.8125
28.8125
28.8125
28.75
28.75
28.6875
28.6875
28.6875
28.625
28.625
28.6875
28.6875
28.6875
28.75
28.75
28.75
28.75
28.75
28.75
28.75
28.75
28.6875
28.625
28.625
28.625
28.625
28.6875
28.6875
28.75
28.75
28.75
28.6875
28.6875
28.6875
28.6875
28.6875
28.625
28.6875
28.6875
28.6875
28.75
28.75
28.75
28.75
28.75
28.75
28.625
28.625
28.5625
28.5625
28.5625
28.5625
28.625
28.625
28.625
28.6875
28.75
28.75
28.6875
28.6875
28.75
28.6875
28.625
28.625
28.625
28.625
28.625
28.6875
28.75
28.8125
28.75
28.75
28.6875
28.6875
28.625
28.625
28.625
28.5625
28.5625
28.5625
28.5625
28.625
28.6875
28.6875
28.6875
28.75
28.75
28.6875
28.6875
28.6875
28.625
28.5625
28.5625
28.625
28.625
28.625
28.6875
28.6875
28.6875
28.75
28.75
28.6875
28.6875
28.6875
28.6875
28.6875
28.6875
28.625
28.5625
28.5625
28.625
28.6875
28.75
28.6875
28.75
28.6875
28.6875
28.6875
28.625
28.5625
28.5625
28.5625
28.5625
28.625
28.625
28.625
28.6875
28.75
28.6875
28.75
28.6875
28.6875
28.625
28.625
28.625
28.5625
28.5625
28.5625
28.5625
28.5625
28.625
28.6875
28.75
28.6875
28.75
28.6875
28.6875
28.625
28.625
28.6875
28.625
28.5625
28.5625
28.625
28.625
28.625
28.625
28.6875
28.6875
28.6875
28.625
28.625
28.5625
28.5
28.5
28.5
28.5625
28.5625
28.5625
28.5625
28.625
28.625
28.625
28.625
28.625
28.5625
28.5625
28.5625
28.5625
28.5625
28.5625
28.5625
28.625
28.6875
28.75
28.6875
28.625
28.625
28.625
28.625
28.625
28.5625
28.5625
28.5625
28.5625
28.5625
28.5625
28.5625
28.5625
28.625
28.625
28.625
28.625
28.625
28.5625
28.5625
28.5625
28.5625
28.5625
28.5625
28.5625
28.625
28.625
28.5625
28.5625
28.5625
28.5625
28.5625
28.5625
28.5625
28.625
28.625
28.625
28.625
28.5625
28.5625
28.625
28.625
28.625
28.625
28.5625
28.5625
28.5
28.5
28.5625
28.5625
28.5625
28.5625
28.625
28.5625
28.5625
28.5625
28.5625
28.5625
28.5
28.5
28.5
28.5625
28.5625
28.625
28.625
28.5625
28.5625
28.625
28.5
28.5
28.4375
28.5
28.5
28.5
28.5
28.5
28.5625
28.5625
28.5
28.5
28.5625
28.5625
28.5625
28.5
28.5625
28.5625
28.5625
28.5625
28.5625
28.5625
28.625
28.625
28.625
28.5625
28.5625
28.5625
28.5625
28.625
28.5625
28.5625
28.5625
28.5625
28.5
28.5
28.5
28.5
28.5
28.5
28.5
28.5
28.5625
28.5625
28.5625
28.5
28.4375
28.4375
28.4375
28.5
28.5625
28.5625
28.5
28.5
28.5
28.5
28.5625
28.5625
28.5625
28.5625
28.5625
28.5625
28.5
28.5
28.625
28.625
28.625
29.0
28.625
26.5625
25.25
25.5
26.5625
27.375
30.4375
30.75
28.5625
28.4375
30.125
30.875
30.4375
28.3125
26.4375
25.0
25.0
25.375
27.1875
28.4375
30.5
31.6875
31.25
30.4375
30.1875
29.6875
29.625
29.5
29.4375
29.0625
28.6875
27.8125
28.0
28.4375
28.875
28.5625
28.625
29.25
30.5
31.5625
32.0
31.5
30.375
29.5
29.25
29.125
28.625
28.25
28.125
28.9375
30.0
31.0
31.1875
30.75
30.25
30.125
30.1875
30.0
29.3125
28.6875
28.4375
28.75
29.25
29.8125
30.1875
30.5625
30.6875
30.8125
30.75
30.5
30.125
29.625
29.3125
29.125
29.3125
30.0
30.25
29.875
29.1875
28.9375
29.3125
29.6875
29.75
29.5625
29.6875
29.9375
30.0625
29.8125
29.4375
29.1875
28.9375
28.875
28.9375
29.125
29.375
29.5
29.5
29.5
29.5
29.5625
29.5625
29.5
29.375
29.25
29.1875
29.0625
29.0625
29.125
29.125
29.1875
29.1875
29.25
29.375
29.5
29.5625
29.4375
29.3125
29.5
29.625
29.5
29.3125
29.125
29.125
29.1875
29.25
29.25
29.3125
29.4375
29.625
29.75
29.6875
29.6875
29.625
29.5625
29.5
29.375
29.3125
29.3125
29.25
29.25
29.3125
29.375
29.4375
29.4375
29.5
29.5
29.5
29.4375
29.375
29.25
29.0625
28.875
28.8125
28.625
28.5625
28.6875
28.9375
29.1875
29.1875
29.0
28.8125
28.75
28.8125
28.875
28.875
28.9375
29.0
29.0625
29.0
28.9375
28.9375
28.9375
28.9375
28.9375
28.9375
29.0
29.125
29.125
29.1875
29.125
29.125
29.0625
29.0625
29.0625
29.125
29.125
29.125
29.125
29.1875
29.1875
29.25
29.3125
29.375
29.4375
29.5
29.6875
29.6875
29.4375
29.125
29.125
29.1875
29.3125
29.3125
29.3125
29.375
29.3125
29.25
29.125
29.0625
29.0625
29.125
29.125
29.125
29.125
29.0625
29.0
29.0
29.0
28.9375
28.9375
28.9375
29.0
29.0
28.9375
28.875
28.75
28.6875
28.6875
28.75
28.8125
28.8125
28.8125
28.8125
28.8125
28.875
28.875
28.875
28.875
28.875
28.875
28.875
28.875
28.9375
28.9375
28.875
28.875
28.875
28.9375
28.875
28.875
28.9375
28.9375
28.9375
29.0
29.0
29.0
29.0
29.0625
29.0625
29.0625
29.0625
29.125
29.125
29.125
29.125
29.125
29.1875
29.125
29.125
29.125
29.125
29.125
29.125
29.0625
29.0625
29.0625
29.0625
29.0625
29.0
29.0
28.9375
28.9375
28.9375
28.9375
28.9375
28.9375
28.9375
28.875
28.875
28.8125
28.8125
28.875
29.0625
29.1875
29.25
29.3125
29.375
29.4375
29.5
29.5
29.5625
29.625
29.6875
29.75
29.8125
29.8125
29.8125
29.8125
29.875
29.9375
29.9375
29.9375
29.9375
29.9375
30.0
29.9375
29.9375
29.875
29.875
29.875
29.875
29.875
29.875
29.875
29.875
29.875
29.875
29.875
29.875
29.875
29.875
29.9375
29.875
29.8125
29.8125
29.8125
29.75
29.8125
29.8125
29.8125
29.75
29.8125
29.6875
29.6875
29.75
29.75
29.6875
29.6875
29.6875
29.6875
29.625
29.625
29.5625
29.5625
29.5625
29.5625
29.5625
29.5625
29.5
29.5625
29.5625
29.5625
29.5
29.4375
29.4375
29.4375
29.4375
29.4375
29.4375
29.4375
29.4375
29.4375
29.4375
29.5
29.4375
29.375
29.375
29.375
29.375
29.375
29.375
29.3125
29.3125
29.25
29.25
29.25
29.25
29.3125
29.3125
29.25
29.3125
29.3125
29.25
29.25
29.3125
29.3125
29.3125
29.3125
29.3125
29.3125
29.25
29.25
29.3125
29.3125
29.25
29.25
29.25
29.25
29.3125
29.3125
29.3125
29.3125
29.3125
29.25
29.25
29.1875
29.1875
29.1875
29.25
29.25
29.25
29.25
29.25
29.25
29.25
29.1875
29.1875
29.1875
29.1875
29.125
29.125
29.125
29.125
29.0625
29.0625
29.125
29.125
29.125
29.125
29.1875
29.1875
29.1875
29.1875
29.1875
29.1875
29.1875
29.1875
29.125
29.125
29.125
29.1875
29.1875
29.125
29.125
29.125
29.125
29.125
29.1875
29.125
29.125
29.0625
29.0625
29.125
29.125
29.0625
29.0625
29.0625
29.125
29.125
29.125
29.125
29.125
29.0625
29.0625
29.125
29.0625
29.0625
29.0625
29.0625
29.125
29.125
29.125
29.0625
29.0625
29.0625
29.0625
29.0625
29.0625
29.0625
29.0625
29.0625
29.0625
29.0625
29.0625
29.0625
29.0625
29.0625
29.0625
29.0625
29.0625
29.0625
29.0625
29.0
29.0
29.0
29.0625
29.0625
29.0625
29.0625
29.0625
29.0
29.0
29.0
29.0
29.0
29.0
29.0
29.0625
29.0625
29.0
29.0
29.0625
29.0625
29.0
29.0
29.0
29.0
29.0
29.0
29.0
28.9375
28.9375
28.9375
28.875
28.9375
29.0
29.0
29.0
28.9375
28.9375
28.9375
28.9375
28.9375
28.9375
28.9375
29.0
29.0
28.9375
28.9375
28.9375
28.9375
28.9375
28.875
28.875
28.875
28.875
28.875
28.875
28.9375
28.9375
28.9375
28.9375
28.9375
28.9375
28.875
28.875
28.875
28.875
28.875
28.9375
28.9375
28.875
28.9375
28.9375
28.875
28.875
28.8125
28.875
28.875
28.875
28.875
28.875
28.875
28.875
28.875
28.875
28.875
28.875
28.875
28.875
28.875
28.875
28.9375
28.875
28.875
28.875
28.875
28.8125
28.8125
28.8125
28.875
28.875
28.875
28.9375
28.9375
28.875
28.875
28.875
28.8125
28.8125
28.75
28.75
28.8125
28.8125
28.875
28.875
28.8125
28.875
28.875
28.875
28.9375
28.9375
28.875
28.875
28.875
28.875
28.875
28.8125
28.8125
28.8125
28.8125
28.8125
28.875
28.8125
28.8125
28.8125
28.8125
28.8125
28.8125
28.75
28.75
28.75
28.75
28.8125
28.8125
28.8125
28.8125
28.8125
28.8125
28.875
28.875
28.875
28.8125
28.75
28.75
28.75
28.75
28.8125
28.8125
28.8125
28.8125
28.8125
28.8125
28.875
28.8125
28.8125
28.8125
28.75
28.75
28.75
28.75
28.75
28.75
28.75
28.75
28.75
28.8125
28.8125
28.8125
28.8125
28.75
28.75
28.75
28.75
28.75
28.75
28.75
28.75
28.8125
28.8125
28.8125
28.8125
28.8125
28.8125
28.8125
28.8125
28.8125
28.75
28.75
28.75
28.75
28.6875
28.75
28.75
28.75
28.75
28.75
28.75
28.8125
28.8125
28.75
28.6875
28.6875
28.75
28.75
28.75
28.75
28.75
28.75
28.75
28.8125
28.8125
28.8125
28.75
28.75
28.75
28.75
28.6875
28.6875
28.75
28.75
28.75
28.75
28.75
28.75
28.75
28.75
28.75
28.75
28.75
28.6875
28.6875
28.75
28.75
28.75
28.75
28.6875
28.6875
28.6875
28.6875
28.75
28.75
28.75
28.75
28.75
28.75
28.75
28.75
28.75
28.75
28.8125
28.6875
28.6875
28.6875
28.625
28.625
28.6875
28.6875
28.6875
28.625
28.625
28.625
28.625
28.625
28.6875
28.6875
28.6875
28.6875
28.6875
28.6875
28.6875
28.6875
28.6875
28.6875
28.6875
28.75
28.75
28.75
28.75
28.75
28.75
28.75
28.75
28.6875
28.625
28.625
28.625
28.625
28.625
28.625
28.625
28.6875
28.625
28.625
28.6875
28.6875
28.6875
28.6875
28.6875
28.6875
28.6875
28.6875
28.6875
28.6875
28.6875
28.75
28.75
28.75
28.75
28.75
28.75
28.6875
28.6875
28.625
28.625
28.6875
28.6875
28.625
28.625
28.625
28.625
28.625
28.625
28.625
28.625
28.5625
28.5625
28.625
28.625
28.625
28.625
28.625
28.625
28.625
28.625
28.625
28.625
28.6875
28.6875
28.625
28.625
28.6875
28.6875
28.6875
28.6875
28.6875
28.625
28.6875
28.625
28.6875
28.6875
28.6875
28.6875
28.6875
28.6875
28.6875
28.6875
28.6875
28.6875
28.6875
28.6875
28.6875
28.625
28.625
28.625
28.6875
28.6875
28.6875
28.6875
28.625
28.625
28.625
28.625
28.625
28.625
28.625
28.625
28.625
28.625
28.5625
28.5625
28.5625
28.625
28.625
28.625
28.625
28.625
28.625
28.625
28.625
28.625
28.625
28.625
28.625
28.625
28.625
28.625
28.625
28.625
28.625
28.625
28.6875
28.6875
28.6875
28.625
28.625
28.625
28.625
28.625
28.625
28.625
28.5625
28.5
28.5
28.5625
28.5625
28.625
28.5625
28.5625
28.5625
28.625
28.625
28.625
28.625
28.625
28.625
28.625
28.625
28.5625
28.5625
28.5625
28.5625
28.5625
28.625
28.625
28.625
28.625
28.5625
28.5625
28.5625
28.5625
28.5625
28.5625
28.5625
28.5625
28.625
28.625
28.625
28.625
28.5625
28.5
28.5
28.5
28.5625
28.5
28.5
28.5
28.5
28.5
28.5
28.5625
28.625
28.625
28.6875
28.5625
28.5625
28.5625
28.5
28.5
28.5
28.5
28.5625
28.5625
28.5625
28.5625
28.625
28.625
28.625
28.625
28.5625
28.5625
28.5625
28.5625
28.5625
28.5625
28.5
28.5
28.5
28.5625
28.5625
28.5625
28.5625
28.5625
28.625
28.625
28.625
28.5625
28.5625
28.5
28.5
28.5
28.5
28.5
28.5
28.5
28.5
28.5
28.5625
28.5625
28.5625
28.5625
28.625
28.625
28.625
28.5625
28.5625
28.5625
28.5625
28.5625
28.5625
28.5
28.5625
28.5625
28.5625
28.5625
28.5625
28.5625
28.5625
28.5625
28.5
28.5
28.5
28.4375
28.5
28.5
28.5
28.5
28.5625
28.5625
28.5625
28.5
28.5625
28.5
28.5
28.5625
28.5
28.4375
28.4375
28.5
28.4375
28.4375
28.4375
28.4375
28.4375
28.4375
28.4375
28.5
28.5625
28.5625
28.5625
28.5625
28.5625
28.5625
28.5625
28.5625
28.5
28.5
28.5
28.4375
28.375
28.375
28.4375
28.375
28.375
28.4375
28.5
28.5625
28.5625
28.5625
28.5625
28.5625
28.5625
28.5
28.375
28.4375
28.5
28.5
28.5625
28.5625
28.5
28.5
28.5625
28.5625
28.5625
28.5
28.4375
28.4375
28.4375
28.4375
28.4375
28.5
28.5
28.4375
28.4375
28.375
28.3125
28.3125
28.3125
28.3125
28.375
28.375
28.375
28.375
28.375
28.375
28.4375
28.5625
28.5625
28.5625
28.5625
28.625
28.625
28.6875
28.6875
28.625
28.5625
28.5
28.5
28.5
28.5
28.5625
28.5625
28.5625
28.5
28.5
28.5
28.375
28.25
28.0625
28.0
28.0625
28.125
28.0
27.9375
28.0625
28.3125
28.4375
28.5
28.4375
28.375
28.375
28.4375
28.4375
28.3125
28.3125
28.5625
28.9375
29.1875
29.125
28.9375
28.6875
28.5
28.1875
27.875
27.625
27.5625
27.6875
27.9375
28.25
28.5
28.75
28.9375
29.25
29.6875
29.5
28.75
28.1875
28.1875
28.5
28.5625
28.25
27.875
27.8125
28.0
28.25
28.375
28.4375
28.4375
28.4375
28.5
28.5
28.4375
28.3125
28.1875
28.0
27.875
27.875
27.9375
28.0625
28.1875
28.375
28.625
28.75
28.625
28.625
28.6875
28.75
28.6875
28.5
28.3125
28.3125
28.3125
28.25
28.1875
28.25
28.3125
28.4375
28.625
28.6875
28.6875
28.6875
28.6875
29.0
29.3125
29.0
28.4375
28.1875
28.375
28.5
28.375
28.1875
28.1875
28.375
28.5
28.4375
28.3125
28.3125
28.1875
28.0625
28.0625
28.125
28.25
28.375
28.375
28.3125
28.3125
28.375
28.375
28.4375
28.375
28.375
28.375
28.375
28.375
28.3125
28.3125
28.3125
28.375
28.4375
28.375
28.375
28.375
28.375
28.4375
28.5
28.5
28.5625
28.625
28.75
28.5625
28.3125
28.25
28.4375
28.625
28.6875
28.625
28.5
28.375
28.25
28.25
28.25
28.25
28.375
28.5
28.625
28.75
28.9375
28.8125
28.6875
28.4375
28.25
28.1875
28.25
28.4375
28.5625
28.4375
28.25
28.1875
28.25
28.4375
28.5625
28.4375
28.3125
28.1875
28.0625
27.9375
27.9375
27.9375
28.0625
28.25
28.375
28.4375
28.5625
28.5625
28.5
28.4375
28.375
28.25
28.1875
28.1875
28.1875
28.3125
28.4375
28.75
28.875
28.8125
28.75
28.8125
28.625
28.375
28.25
28.3125
28.3125
28.1875
28.0625
28.0
28.1875
28.375
28.5
28.375
28.4375
28.5625
28.625
28.5625
28.375
28.1875
28.125
28.125
28.25
28.3125
28.3125
28.5
28.6875
28.875
29.0625
29.0625
29.0625
28.9375
28.6875
28.375
28.0625
27.8125
27.8125
27.8125
28.0
28.1875
28.4375
29.0
29.8125
29.9375
28.9375
27.8125
27.5
27.8125
28.0
27.5625
27.0625
27.0
27.25
27.6875
27.875
27.9375
27.875
27.8125
27.875
28.125
28.375
28.5
28.625
28.5
28.5
28.5
28.5625
28.5625
28.5625
28.4375
28.25
28.0625
28.125
28.1875
28.25
28.25
28.5625
29.0625
29.4375
29.0
28.5
28.25
28.4375
28.625
28.5625
28.4375
28.3125
28.375
28.4375
28.5
28.5
28.5625
28.5625
28.5
28.375
28.375
28.375
28.5
28.5625
28.4375
28.25
28.25
28.25
28.25
28.25
28.25
28.5
28.6875
28.75
28.75
29.0625
29.5625
29.625
29.25
29.1875
29.5
29.5
29.25
29.0625
29.0625
29.0
29.0
29.125
29.375
29.5
29.4375
29.375
29.375
29.375
29.5
29.625
29.875
30.0625
30.1875
30.25
30.1875
30.0625
30.0625
30.0
29.9375
29.9375
29.8125
29.75
29.625
29.625
29.75
29.875
30.0
30.1875
30.5
30.5
30.0625
29.625
29.5
29.6875
29.875
29.6875
29.4375
29.375
29.5625
29.75
29.875
29.8125
29.75
29.6875
29.6875
29.625
29.6875
29.6875
29.75
29.75
29.75
29.75
29.8125
29.6875
29.5
29.25
29.25
29.375
29.5
29.5
29.5
29.5
29.5
29.375
29.25
29.125
29.0625
29.125
29.1875
29.25
29.1875
29.1875
29.1875
29.25
29.3125
29.3125
29.3125
29.3125
29.3125
29.375
29.375
29.375
29.3125
29.25
29.25
29.3125
29.4375
29.3125
29.1875
29.125
29.1875
29.375
29.375
29.3125
29.25
29.25
29.1875
29.0625
29.0625
29.0625
29.0625
29.125
29.0625
29.125
29.1875
29.1875
29.1875
29.1875
29.1875
29.1875
29.25
29.25
29.25
29.25
29.25
29.3125
29.3125
29.25
29.25
29.25
29.25
29.1875
29.1875
29.125
29.125
29.125
29.125
29.125
29.125
29.0625
29.0625
29.125
29.125
29.125
29.125
29.125
29.125
29.125
29.125
29.0625
29.0625
29.0625
29.0625
29.0625
29.0625
29.0625
29.0
29.0
28.9375
28.9375
29.0
29.0
29.0
29.0
29.0
28.9375
28.9375
28.9375
28.9375
28.875
28.9375
28.9375
29.0
29.0
29.0
29.0
29.0
29.0625
29.0625
29.0625
29.0625
29.0625
29.125
29.125
29.0625
29.0625
29.0625
29.0625
29.0625
29.0
29.0625
29.0625
29.0
29.0
29.0
29.0
29.0
29.0
29.0
29.0
28.9375
28.9375
28.9375
28.9375
28.9375
29.0
29.0
29.0
29.0
28.9375
28.9375
28.9375
29.0
29.0
28.9375
28.9375
28.9375
28.9375
28.9375
28.9375
28.9375
28.875
28.875
28.9375
28.875
28.875
28.875
28.875
28.875
28.875
28.9375
28.875
28.875
28.875
28.8125
28.875
28.875
29.0
28.9375
28.9375
29.0
29.0
29.0
29.0
29.0
29.0
29.0
28.9375
28.9375
28.9375
28.9375
28.9375
28.9375
28.9375
28.875
28.875
28.875
28.875
28.8125
28.8125
28.8125
28.8125
28.75
28.8125
28.8125
28.8125
28.8125
28.875
28.9375
28.9375
28.9375
28.9375
28.875
28.875
28.875
28.875
28.875
28.875
28.875
28.8125
28.8125
28.8125
28.75
28.75
28.75
28.75
28.75
28.8125
28.8125
28.8125
28.75
28.75
28.75
28.75
28.75
28.8125
28.8125
28.8125
28.875
28.875
28.875
28.8125
28.8125
28.8125
28.8125
28.8125
28.75
28.75
28.75
28.75
28.8125
28.75
28.75
28.75
28.75
28.8125
28.8125
28.8125
28.8125
28.8125
28.8125
28.75
28.8125
28.8125
28.8125
28.8125
28.8125
28.875
28.875
28.875
28.9375
28.9375
28.875
28.875
28.8125
28.75
28.75
28.75
28.6875
28.6875
28.6875
28.6875
28.625
28.625
28.6875
28.6875
28.6875
28.6875
28.75
28.75
28.75
28.8125
28.75
28.75
28.8125
28.8125
28.8125
28.875
28.875
28.9375
28.9375
28.9375
28.875
28.8125
28.8125
28.8125
28.8125
28.8125
28.75
28.75
28.6875
28.6875
28.6875
28.625
28.625
28.625
28.5625
28.5625
28.5625
28.5625
28.5625
28.625
28.625
28.625
28.625
28.625
28.625
28.75
28.8125
28.8125
28.8125
28.8125
28.875
28.875
29.0
29.0
28.875
28.75
28.75
28.75
28.6875
28.625
28.625
28.75
28.9375
28.9375
28.75
28.625
28.625
28.6875
28.75
28.6875
28.6875
28.625
28.625
28.625
28.625
28.625
28.625
28.625
28.625
28.625
28.6875
28.6875
28.6875
28.6875
28.6875
28.6875
28.6875
28.6875
28.625
28.6875
28.625
28.625
28.6875
28.6875
28.6875
28.6875
28.6875
28.625
28.625
28.6875
28.6875
28.625
28.625
28.625
28.625
28.6875
28.6875
28.75
28.75
28.8125
28.8125
28.75
28.6875
28.6875
28.6875
28.625
28.625
28.625
28.6875
28.6875
28.6875
28.6875
28.6875
28.6875
28.6875
28.75
28.75
28.75
28.6875
28.625
28.625
28.625
28.5625
28.5625
28.5625
28.5625
28.5625
28.625
28.625
28.625
28.5625
28.5625
28.625
28.5625
28.5625
28.5625
28.5625
28.5625
28.625
28.625
28.625
28.6875
28.6875
28.6875
28.625
28.625
28.625
28.6875
28.75
28.75
28.75
28.6875
28.6875
28.6875
28.625
28.5625
28.5
28.5
28.5
28.5
28.4375
28.5
28.5
28.5625
28.5625
28.625
28.625
28.6875
28.625
28.625
28.625
28.5625
28.5625
28.625
28.625
28.5625
28.625
28.6875
28.6875
28.6875
28.6875
28.75
28.8125
28.75
28.625
28.5
28.4375
28.375
28.375
28.4375
28.4375
28.5
28.5625
28.625
28.6875
28.6875
28.6875
28.6875
28.625
28.625
28.625
28.5625
28.5
28.5
28.5
28.5
28.5625
28.625
28.625
28.625
28.5625
28.5625
28.5625
28.625
28.5625
28.4375
28.4375
28.4375
28.4375
28.5
28.5
28.5
28.5
28.5625
28.625
28.6875
28.75
28.75
28.75
28.75
28.75
28.75
28.75
28.75
28.75
28.6875
28.6875
28.6875
28.625
28.5625
28.5625
28.5
28.5
28.4375
28.4375
28.375
28.375
28.375
28.375
28.3125
28.25
28.3125
28.375
28.4375
28.5
28.5625
28.625
28.6875
28.625
28.625
28.625
28.625
28.5625
28.5625
28.5625
28.5625
28.5625
28.5625
28.625
28.6875
28.6875
28.75
28.75
28.6875
28.5625
28.5
28.5625
28.5625
28.4375
28.375
28.375
28.5
28.5625
28.4375
28.375
28.375
28.5
28.625
28.6875
28.625
28.5
28.4375
28.375
28.3125
28.25
28.25
28.375
28.4375
28.5625
28.5625
28.5625
28.5625
28.625
28.6875
28.75
28.875
28.9375
28.8125
28.625
28.5625
28.5625
28.5
28.4375
28.5
28.5625
28.6875
28.625
28.5
28.4375
28.4375
28.5
28.5625
28.5625
28.5
28.5
28.5
28.4375
28.375
28.375
28.375
28.375
28.375
28.375
28.4375
28.4375
28.4375
28.5
28.5625
28.5625
28.5
28.4375
28.4375
28.4375
28.4375
28.4375
28.4375
28.4375
28.4375
28.4375
28.5
28.5
28.5
28.5625
28.5625
28.625
28.625
28.625
28.625
28.625
28.6875
28.625
28.625
28.5625
28.5
28.5
28.5
28.4375
28.4375
28.4375
28.375
28.375
28.375
28.375
28.375
28.4375
28.4375
28.5
28.5
28.5
28.4375
28.4375
28.4375
28.4375
28.5
28.5625
28.5625
28.625
28.6875
28.6875
28.6875
28.6875
28.6875
28.625
28.625
28.5
28.5
28.5
28.4375
28.4375
28.375
28.3125
28.375
28.4375
28.5
28.4375
28.375
28.3125
28.25
28.1875
28.1875
28.1875
28.25
28.25
28.3125
28.3125
28.3125
28.3125
28.375
28.4375
28.5625
28.6875
28.8125
28.75
28.625
28.5625
28.625
28.75
28.6875
28.5
28.5
28.5
28.5
28.375
28.25
28.3125
28.6875
29.1875
29.0625
28.625
28.1875
28.3125
28.5625
28.5625
28.3125
28.125
28.125
28.1875
28.3125
28.375
28.25
28.25
28.25
28.3125
28.375
28.375
28.375
28.375
28.5
28.5
28.5
28.5
28.5
28.5
28.5625
28.5625
28.5
28.5
28.5625
28.625
28.5625
28.5
28.4375
28.375
28.3125
28.3125
28.3125
28.3125
28.3125
28.3125
28.3125
28.375
28.3125
28.375
28.4375
28.375
28.4375
28.5
28.5
28.5
28.5
28.5
28.5
28.5
28.5
28.5
28.5
28.5
28.5
28.4375
28.375
28.4375
28.4375
28.4375
28.375
28.4375
28.375
28.3125
28.25
28.25
28.1875
28.1875
28.25
28.1875
28.1875
28.25
28.25
28.3125
28.375
28.4375
28.4375
28.4375
28.5
28.5
28.625
28.5625
28.375
28.25
28.3125
28.4375
28.5
28.4375
28.375
28.375
28.375
28.4375
28.5625
28.6875
28.5625
28.4375
28.4375
28.4375
28.4375
28.375
28.25
28.125
28.125
28.25
28.3125
28.3125
28.3125
28.25
28.25
28.25
28.25
28.25
28.25
28.25
28.3125
28.375
28.375
28.375
28.375
28.4375
28.4375
28.4375
28.375
28.375
28.4375
28.5
28.5
28.4375
28.4375
28.375
28.375
28.375
28.375
28.375
28.3125
28.3125
28.3125
28.25
28.3125
28.375
28.375
28.375
28.375
28.375
28.375
28.375
28.375
28.375
28.375
28.375
28.3125
28.3125
28.3125
28.3125
28.375
28.3125
28.3125
28.375
28.375
28.375
28.375
28.3125
28.375
28.375
28.375
28.375
28.375
28.3125
28.3125
28.3125
28.375
28.375
28.375
28.375
28.3125
28.3125
28.375
28.375
28.375
28.375
28.4375
28.375
28.375
28.3125
28.375
28.4375
28.375
28.375
28.375
28.375
28.375
28.375
28.375
28.4375
28.375
28.375
28.375
28.375
28.375
28.375
28.375
28.375
28.375
28.375
28.375
28.4375
28.375
28.375
28.375
28.3125
28.3125
28.3125
28.3125
28.3125
28.3125
28.3125
28.3125
28.3125
28.3125
28.3125
28.3125
28.25
28.3125
28.3125
28.375
28.375
28.375
28.375
28.375
28.4375
28.4375
28.4375
28.375
28.375
28.375
28.375
28.375
28.375
28.375
28.375
28.375
28.375
28.375
28.375
28.375
28.3125
28.3125
28.3125
28.3125
28.3125
28.375
28.375
28.375
28.375
28.375
28.375
28.375
28.375
28.375
28.375
28.3125
28.3125
28.25
28.25
28.3125
28.3125
28.3125
28.3125
28.3125
28.3125
28.3125
28.3125
28.3125
28.3125
28.3125
28.3125
28.3125
28.3125
28.375
28.375
28.375
28.3125
28.3125
28.3125
28.3125
28.3125
28.3125
28.3125
28.3125
28.3125
28.3125
28.3125
28.25
28.25
28.25
28.25
28.3125
28.3125
28.3125
28.3125
28.3125
28.3125
28.375
28.375
28.375
28.375
28.375
28.375
28.375
28.3125
28.3125
28.3125
28.375
28.375
28.3125
28.3125
28.3125
28.3125
28.3125
28.3125
28.3125
28.3125
28.3125
28.3125
28.25
28.25
28.1875
28.1875
28.1875
28.25
28.3125
28.3125
28.3125
28.3125
28.3125
28.3125
28.375
28.3125
28.3125
28.25
28.25
28.25
28.375
28.375
28.375
28.375
28.375
28.375
28.375
28.375
28.375
28.3125
28.375
28.375
28.3125
28.3125
28.3125
28.3125
28.3125
28.3125
28.3125
28.3125
28.3125
28.3125
28.25
28.25
28.25
28.25
28.25
28.25
28.25
28.25
28.25
28.25
28.3125
28.3125
28.3125
28.3125
28.3125
28.3125
28.3125
28.3125
28.3125
28.3125
28.3125
28.3125
28.3125
28.3125
28.375
28.375
28.375
28.375
28.3125
28.3125
28.3125
28.3125
28.3125
28.3125
28.25
28.25
28.25
28.25
28.25
28.25
28.25
28.3125
28.3125
28.3125
28.3125
28.375
28.375
28.375
28.375
28.5
28.625
28.75
28.8125
28.875
29.0
29.0625
29.125
29.1875
29.1875
29.25
29.3125
29.375
29.4375
29.5625
29.5625
29.5625
29.625
29.625
29.6875
29.75
29.75
29.8125
29.875
29.875
29.875
29.9375
29.9375
29.9375
29.9375
29.9375
29.9375
29.9375
29.9375
29.9375
29.875
29.9375
29.875
29.875
29.8125
29.8125
29.75
29.75
29.75
29.6875
29.6875
29.6875
29.6875
29.625
29.625
29.625
29.625
29.5625
29.5625
29.5625
29.5625
29.5
29.5625
29.5625
29.5625
29.5625
29.5
29.5
29.5625
29.625
29.5625
29.5625
29.5625
29.5
29.5625
29.5625
29.5625
29.5625
29.5
29.5
29.5
29.5
29.5
29.4375
29.4375
29.4375
29.5
29.5
29.5
29.5
29.4375
29.4375
29.375
29.375
29.375
29.3125
29.3125
29.3125
29.25
29.1875
29.1875
29.1875
29.1875
29.1875
29.1875
29.1875
29.1875
29.1875
29.1875
29.1875
29.1875
29.25
29.3125
29.25
29.25
29.25
29.25
29.3125
29.3125
29.3125
29.25
29.3125
29.3125
29.3125
29.3125
29.25
29.25
29.25
29.25
29.1875
29.125
29.125
29.125
29.125
29.0625
29.0625
29.0625
29.0625
29.125
29.125
29.125
29.125
29.125
29.125
29.0625
29.0625
29.125
29.125
29.0625
29.125
29.125
29.125
29.1875
29.125
29.125
29.125
29.0625
29.0
29.0
29.0
29.0
29.0
29.0
29.0625
29.0625
29.0625
29.0625
29.0625
29.0625
29.0625
29.0625
29.125
29.0625
29.125
29.0625
29.0625
29.125
29.0625
29.0625
29.125
29.125
29.125
29.125
29.125
29.0625
29.0
29.0
29.0
29.0
28.9375
28.875
28.9375
28.9375
28.9375
28.9375
28.875
28.875
28.9375
28.9375
29.0
29.0
29.0
29.0
29.0
29.0
29.0
29.0
29.0
29.0625
29.0625
29.125
29.0625
29.0625
29.0625
29.0625
29.125
29.125
29.125
29.125
29.0625
28.9375
28.9375
29.0
28.9375
28.875
28.875
28.875
28.8125
28.8125
28.8125
28.8125
28.8125
28.8125
28.75
28.75
28.8125
28.8125
28.75
28.75
28.75
28.75
28.8125
28.8125
28.875
28.875
28.9375
29.0
29.0625
29.1875
29.1875
29.0
28.875
28.875
29.0
28.875
28.75
28.6875
28.6875
28.6875
28.6875
28.6875
29.125
29.375
29.125
28.8125
28.75
28.875
29.0
28.9375
28.75
28.5625
28.5625
28.625
28.5625
28.5
28.5625
28.6875
28.75
28.75
28.75
28.8125
28.8125
28.6875
28.625
28.6875
28.75
28.8125
28.8125
28.8125
28.8125
28.875
28.875
28.8125
28.875
28.9375
28.9375
29.0
29.0
29.0
28.9375
28.9375
28.875
28.875
28.8125
28.75
28.75
28.75
28.6875
28.6875
28.625
28.625
28.6875
28.6875
28.6875
28.625
28.625
28.6875
28.75
28.75
28.8125
28.8125
28.8125
28.8125
28.8125
28.8125
28.8125
28.8125
28.875
28.875
28.8125
28.8125
28.8125
28.8125
28.8125
28.8125
28.75
28.75
28.75
28.75
28.75
28.75
28.75
28.75
28.6875
28.6875
28.6875
28.6875
28.6875
28.6875
28.75
28.75
28.75
28.75
28.75
28.75
28.6875
28.6875
28.6875
28.6875
28.6875
28.6875
28.75
28.75
28.75
28.6875
28.75
28.8125
28.75
28.75
28.75
28.75
28.6875
28.6875
28.6875
28.6875
28.625
28.625
28.625
28.625
28.625
28.6875
28.6875
28.6875
28.6875
28.75
28.75
28.75
28.75
28.6875
28.6875
28.6875
28.6875
28.6875
28.6875
28.6875
28.625
28.625
28.6875
28.6875
28.6875
28.6875
28.6875
28.75
28.6875
28.6875
28.625
28.625
28.625
28.6875
28.625
28.625
28.625
28.625
28.625
28.6875
28.6875
28.6875
28.6875
28.6875
28.6875
28.625
28.6875
28.625
28.625
28.625
28.625
28.625
28.6875
28.6875
28.6875
28.6875
28.6875
28.6875
28.6875
28.6875
28.6875
28.75
28.75
28.6875
28.6875
28.75
28.6875
28.6875
28.6875
28.6875
28.6875
28.625
28.625
28.625
28.625
28.5625
28.5625
28.5625
28.625
28.625
28.625
28.625
28.625
28.6875
28.6875
28.6875
28.6875
28.6875
28.625
28.625
28.625
28.625
28.625
28.625
28.625
28.625
28.625
28.625
28.6875
28.6875
28.6875
28.6875
28.6875
28.625
28.625
28.625
28.625
28.6875
28.625
28.625
28.6875
28.625
28.5625
28.5625
28.625
28.625
28.625
28.625
28.625
28.625
28.5625
28.5625
28.5625
28.625
28.625
28.625
28.625
28.5625
28.5625
28.625
28.625
28.5625
28.5625
28.625
28.625
28.625
28.5625
28.5625
28.625
28.625
28.625
28.625
28.625
28.625
28.625
28.625
28.625
28.5625
28.5625
28.5625
28.5625
28.5625
28.5625
28.5625
28.5625
28.625
28.5625
28.5625
28.625
28.625
28.625
28.625
28.625
28.5625
28.5625
28.5625
28.5625
28.5625
28.5625
28.5625
28.5625
28.5625
28.5625
28.5625
28.5625
28.5
28.5
28.5
28.5
28.5
28.5
28.5
28.5
28.5
28.5
28.5
28.5
28.5
28.5625
28.625
28.6875
28.6875
28.625
28.625
28.625
28.625
28.625
28.625
28.625
28.625
28.5625
28.5625
28.5625
28.5
28.5
28.4375
28.4375
28.4375
28.4375
28.375
28.375
28.3125
28.375
28.4375
28.4375
28.4375
28.5
28.5
28.5625
28.5625
28.625
28.625
28.625
28.625
28.75
28.875
28.8125
28.625
28.5625
28.5625
28.5625
28.5625
28.6875
28.75
28.625
28.5
28.375
28.4375
28.5
28.5625
28.5625
28.5625
28.5
28.5
28.375
28.25
28.1875
28.1875
28.1875
28.25
28.25
28.25
28.25
28.3125
28.375
28.4375
28.5
28.75
28.9375
28.875
28.625
28.5625
28.625
28.75
28.75
28.625
28.5625
28.5625
28.5625
28.5
28.4375
28.5625
28.9375
29.25
29.0625
28.625
28.375
28.4375
28.5625
28.5
28.375
28.1875
28.125
28.125
28.125
28.1875
28.3125
28.375
28.3125
28.3125
28.375
28.4375
28.4375
28.375
28.375
28.4375
28.5
28.5625
28.625
28.5625
28.625
28.5625
28.5625
28.5625
28.5625
28.5625
28.5
28.5
28.5625
28.625
28.5625
28.4375
28.4375
28.4375
28.4375
28.375
28.375
28.3125
28.3125
28.3125
28.3125
28.375
28.4375
28.4375
28.5
28.5
28.5625
28.5625
28.5625
28.5625
28.5625
28.5625
28.625
28.625
28.625
28.5625
28.5625
28.5625
28.5625
28.5625
28.5625
28.5625
28.5
28.5
28.5
28.5
28.4375
28.4375
28.375
28.375
28.375
28.375
28.375
28.375
28.375
28.375
28.375
28.375
28.375
28.4375
28.375
28.375
28.4375
28.4375
28.4375
28.5
28.5
28.5
28.5
28.5
28.5
28.5
28.5625
28.5625
28.5
28.5
28.5625
28.5
28.5
28.5
28.4375
28.4375
28.375
28.3125
28.375
28.375
28.375
28.375
28.375
28.375
28.375
28.375
28.4375
28.4375
28.4375
28.4375
28.375
28.375
28.375
28.3125
28.3125
28.3125
28.3125
28.375
28.375
28.5
28.5
28.5
28.5
28.5625
28.5625
28.5625
28.5625
28.625
28.5625
28.5625
28.5625
28.5
28.4375
28.4375
28.375
28.3125
28.3125
28.3125
28.3125
28.3125
28.3125
28.25
28.25
28.25
28.25
28.25
28.1875
28.25
28.3125
28.3125
28.3125
28.3125
28.375
28.375
28.4375
28.5
28.5625
28.5625
28.5625
28.5625
28.5625
28.5625
28.5625
28.5625
28.5
28.5
28.5
28.5
28.5
28.4375
28.375
28.3125
28.375
28.3125
28.3125
28.25
28.25
28.25
28.1875
28.1875
28.1875
28.1875
28.1875
28.1875
28.25
28.3125
28.3125
28.25
28.25
28.3125
28.4375
28.4375
28.5
28.5
28.5625
28.5625
28.5625
28.625
28.6875
28.5625
28.4375
28.375
28.4375
28.5
28.4375
28.4375
28.375
28.375
28.3125
28.3125
28.25
28.25
28.25
28.25
28.25
28.25
28.1875
28.1875
28.125
28.1875
28.1875
28.1875
28.1875
28.25
28.3125
28.3125
28.375
28.375
28.4375
28.5
28.5
28.5
28.5
28.5
28.5625
28.5
28.5
28.5
28.5
28.5
28.5
28.4375
28.375
28.3125
28.25
28.25
28.25
28.25
28.25
28.25
28.25
28.25
28.1875
28.1875
28.25
28.25
28.25
28.25
28.25
28.3125
28.3125
28.375
28.375
28.4375
28.375
28.375
28.375
28.4375
28.4375
28.4375
28.4375
28.375
28.375
28.375
28.375
28.375
28.3125
28.3125
28.3125
28.3125
28.25
28.3125
28.3125
28.3125
28.25
28.25
28.25
28.25
28.25
28.3125
28.3125
28.3125
28.3125
28.3125
28.3125
28.3125
28.3125
28.375
28.375
28.375
28.375
28.375
28.375
28.375
28.375
28.375
28.375
28.375
28.375
28.3125
28.3125
28.375
28.3125
28.3125
28.3125
28.3125
28.3125
28.3125
28.3125
28.25
28.25
28.25
28.3125
28.375
28.3125
28.3125
28.3125
28.375
28.3125
28.3125
28.375
28.3125
28.3125
28.3125
28.375
28.375
28.375
28.375
28.375
28.375
28.375
28.375
28.3125
28.375
28.375
28.3125
28.3125
28.3125
28.3125
28.3125
28.3125
28.3125
28.3125
28.3125
28.25
28.25
28.25
28.25
28.3125
28.3125
28.3125
28.3125
28.25
28.3125
28.375
28.375
28.375
28.3125
28.3125
28.375
28.375
28.375
28.375
28.3125
28.3125
28.3125
28.3125
28.3125
28.3125
28.3125
28.375
28.3125
28.3125
28.3125
28.3125
28.3125
28.25
28.25
28.3125
28.3125
28.3125
28.3125
28.3125
28.3125
28.375
28.375
28.375
28.375
28.375
28.375
28.3125
28.3125
28.3125
28.3125
28.3125
28.3125
28.3125
28.3125
28.25
28.25
28.3125
28.3125
28.3125
28.25
28.25
28.25
28.25
28.3125
28.3125
28.25
28.25
28.3125
28.3125
28.3125
28.3125
28.3125
28.3125
28.375
28.375
28.375
28.375
28.375
28.375
28.3125
28.3125
28.3125
28.25
28.25
28.25
28.25
28.25
28.25
28.25
28.1875
28.1875
28.1875
28.1875
28.25
28.25
28.25
28.25
28.25
28.3125
28.375
28.375
28.3125
28.3125
28.375
28.3125
28.3125
28.3125
28.3125
28.375
28.375
28.3125
28.3125
28.25
28.25
28.25
28.3125
28.3125
28.25
28.25
28.25
28.25
28.3125
28.3125
28.3125
28.25
28.25
28.25
28.25
28.3125
28.3125
28.3125
28.3125
28.25
28.25
28.3125
28.25
28.25
28.25
28.25
28.25
28.25
28.25
28.25
28.25
28.25
28.3125
28.3125
28.3125
28.3125
28.3125
28.3125
28.3125
28.3125
28.3125
28.375
28.3125
28.3125
28.3125
28.3125
28.3125
28.25
28.3125
28.3125
28.3125
28.25
28.25
28.25
28.25
28.25
28.25
28.25
28.25
28.25
28.25
28.25
28.25
28.3125
28.3125
28.3125
28.375
28.375
28.375
28.375
28.375
28.375
28.3125
28.3125
28.25
28.3125
28.5
28.625
28.6875
28.75
28.9375
29.0625
29.125
29.125
29.1875
29.3125
29.375
29.4375
29.5
29.5625
29.5625
29.625
29.6875
29.75
29.75
29.8125
29.8125
29.8125
29.8125
29.875
29.9375
29.875
29.9375
29.9375
29.875
29.8125
29.875
29.875
29.8125
29.8125
29.8125
29.8125
29.8125
29.8125
29.8125
29.8125
29.75
29.75
29.75
29.75
29.75
29.6875
29.6875
29.6875
29.5625
29.5625
29.5625
29.5
29.4375
29.5
29.5625
29.5625
29.625
29.625
29.625
29.5625
29.5625
29.5625
29.625
29.625
29.5625
29.5625
29.5
29.4375
29.4375
29.5
29.5
29.4375
29.375
29.375
29.375
29.3125
29.3125
29.375
29.375
29.375
29.375
29.3125
29.3125
29.3125
29.3125
29.25
29.25
29.3125
29.3125
29.3125
29.375
29.375
29.375
29.3125
29.25
29.25
29.25
29.25
29.25
29.25
29.25
29.25
29.1875
29.1875
29.25
29.1875
29.1875
29.1875
29.1875
29.1875
29.1875
29.1875
29.1875
29.1875
29.125
29.125
29.125
29.125
29.125
29.125
29.0625
29.0625
29.0625
29.0625
29.125
29.125
29.125
29.125
29.125
29.125
29.125
29.125
29.125
29.125
29.125
29.125
29.125
29.125
29.125
29.125
29.125
29.125
29.125
29.125
29.125
29.125
29.0625
29.0625
29.0625
29.0625
29.0625
29.0625
29.0
29.0
29.0
29.0
29.0
29.0
29.0
29.0
29.0
29.0
29.0
29.0625
29.0625
29.0625
29.0625
29.0625
29.0
29.0
29.0625
29.0
29.0
29.0625
29.0625
29.0625
29.0
29.0
28.9375
28.9375
28.9375
28.9375
28.9375
29.0
28.9375
28.9375
28.875
28.875
28.875
28.875
28.875
28.875
28.9375
29.0
29.0
29.0625
29.0625
29.0625
29.125
29.125
29.125
29.0625
29.0625
29.0
29.0
29.0
29.0
28.9375
28.9375
28.9375
28.875
28.875
28.8125
28.8125
28.8125
28.8125
28.8125
28.75
28.75
28.8125
28.875
28.875
28.9375
29.0625
29.0625
29.0
29.0
29.0
29.0
28.9375
29.0
28.9375
28.9375
28.9375
28.9375
28.9375
28.9375
28.9375
28.9375
28.9375
28.9375
28.9375
28.875
28.875
28.875
28.875
28.875
28.8125
28.8125
28.75
28.75
28.75
28.75
28.75
28.8125
28.75
28.8125
28.8125
28.8125
28.875
28.9375
28.9375
28.9375
29.0
29.0
29.0
29.0
28.9375
28.9375
28.875
28.8125
28.75
28.75
28.75
28.6875
28.5625
28.5625
28.5625
28.5625
28.5
28.4375
28.4375
28.5
28.5625
28.625
28.6875
28.75
28.8125
28.875
28.9375
29.125
29.25
29.125
28.9375
28.875
28.875
28.9375
28.875
28.6875
28.6875
28.625
28.5625
28.6875
29.0
29.1875
28.875
28.4375
28.375
28.6875
28.9375
28.75
28.4375
28.3125
28.4375
28.625
28.6875
28.625
28.625
28.625
28.625
28.625
28.6875
28.6875
28.75
28.75
28.75
28.8125
28.8125
28.75
28.5625
28.5625
28.6875
28.6875
28.6875
28.6875
28.625
28.6875
28.75
28.6875
28.6875
28.75
28.6875
28.625
28.625
28.6875
28.6875
28.6875
28.75
28.8125
28.8125
28.8125
28.8125
28.8125
28.875
28.8125
28.75
28.75
28.75
28.75
28.6875
28.75
28.6875
28.625
28.5625
28.5625
28.625
28.625
28.5625
28.5625
28.5625
28.5625
28.5625
28.5625
28.5625
28.5625
28.5625
28.5625
28.5625
28.6875
28.6875
28.6875
28.6875
28.6875
28.75
28.75
28.8125
28.875
28.75
28.625
28.625
28.6875
28.6875
28.6875
28.8125
28.875
28.875
28.8125
28.75
28.75
28.6875
28.625
28.625
28.625
28.625
28.625
28.5625
28.5
28.5
28.4375
28.4375
28.4375
28.4375
28.4375
28.5
28.5625
28.5625
28.5625
28.5625
28.625
28.625
28.6875
28.6875
28.6875
28.6875
28.75
28.75
28.75
28.8125
28.8125
28.75
28.75
28.75
28.75
28.6875
28.6875
28.625
28.625
28.625
28.6875
28.625
28.625
28.625
28.5625
28.5625
28.5625
28.5625
28.5
28.5
28.5
28.5
28.5
28.5
28.5
28.5
28.5625
28.5625
28.5625
28.625
28.625
28.625
28.5625
28.5625
28.625
28.6875
28.625
28.625
28.625
28.6875
28.625
28.6875
28.6875
28.625
28.5625
28.5625
28.5625
28.5625
28.5625
28.5625
28.5625
28.5625
28.5625
28.5625
28.5625
28.5
28.5
28.5
28.5625
28.5625
28.5625
28.5625
28.5625
28.5625
28.5625
28.5625
28.5625
28.5625
28.5625
28.625
28.625
28.625
28.625
28.5625
28.5625
28.5
28.5625
28.625
28.5625
28.5625
28.5625
28.5625
28.5625
28.5625
28.5625
28.5625
28.5625
28.5625
28.5
28.5
28.5
28.5
28.5
28.5
28.5625
28.5
28.5
28.5
28.5
28.5625
28.5
28.5
28.5
28.5
28.5
28.5
28.5
28.5625
28.5625
28.5625
28.5
28.5
28.5625
28.625
28.625
28.625
28.625
28.5625
28.5625
28.5625
28.5625
28.5625
28.5625
28.5
28.5
28.5625
28.5
28.5
28.5
28.5625
28.5
28.5
28.5
28.4375
28.4375
28.5
28.4375
28.4375
28.4375
28.5
28.5
28.4375
28.4375
28.5
28.5625
28.5625
28.5625
28.625
28.625
28.625
28.625
28.5625
28.5625
28.5625
28.5625
28.5625
28.5625
28.5
28.4375
28.4375
28.4375
28.5
28.4375
28.4375
28.5
28.5
28.5
28.5
28.5
28.4375
28.4375
28.4375
28.4375
28.5
28.5
28.5
28.5625
28.625
28.625
28.625
28.625
28.625
28.625
28.625
28.5625
28.5625
28.5
28.5
28.4375
28.4375
28.5
28.5
28.5
28.4375
28.4375
28.375
28.375
28.4375
28.4375
28.4375
28.4375
28.4375
28.4375
28.4375
28.4375
28.4375
28.5
28.5
28.5
28.5
28.5
28.5
28.5625
28.5625
28.5
28.5
28.5625
28.5625
28.5
28.5
28.5
28.5
28.4375
28.4375
28.4375
28.4375
28.5
28.4375
28.4375
28.4375
28.4375
28.4375
28.4375
28.4375
28.4375
28.375
28.375
28.4375
28.4375
28.4375
28.375
28.375
28.375
28.375
28.375
28.375
28.375
28.375
28.375
28.4375
28.4375
28.4375
28.4375
28.4375
28.4375
28.4375
28.5
28.5
28.4375
28.5
28.5
28.5
28.5
28.5625
28.5625
28.5
28.5
28.5
28.5
28.4375
28.4375
28.4375
28.4375
28.4375
28.375
28.375
28.375
28.375
28.3125
28.3125
28.375
28.375
28.375
28.375
28.375
28.4375
28.4375
28.4375
28.4375
28.4375
28.4375
28.4375
28.4375
28.4375
28.4375
28.5
28.5
28.5
28.5
28.5
28.5
28.5
28.5
28.5
28.5
28.5
28.4375
28.375
28.375
28.4375
28.4375
28.375
28.375
28.375
28.375
28.375
28.375
28.375
28.4375
28.4375
28.375
28.375
28.375
28.4375
28.4375
28.4375
28.4375
28.4375
28.5
28.5
28.4375
28.4375
28.4375
28.375
28.375
28.4375
28.5
28.4375
28.4375
28.4375
28.375
28.375
28.375
28.375
28.375
28.3125
28.375
28.375
28.375
28.375
28.375
28.4375
28.4375
28.4375
28.4375
28.4375
28.375
28.375
28.375
28.375
28.375
28.375
28.375
28.5
28.5
28.4375
28.4375
28.5
28.4375
28.4375
28.4375
28.4375
28.4375
28.4375
28.4375
28.375
28.375
28.375
28.375
28.3125
28.3125
28.3125
28.375
28.375
28.375
28.3125
28.3125
28.375
28.375
28.375
28.375
28.4375
28.4375
28.375
28.4375
28.4375
28.4375
28.375
28.375
28.375
28.375
28.375
28.375
28.4375
28.4375
28.375
28.3125
28.375
28.3125
28.3125
28.3125
28.3125
28.3125
28.25
28.25
28.25
28.3125
28.3125
28.375
28.3125
28.3125
28.375
28.375
28.375
28.375
28.375
28.375
28.375
28.375
28.375
28.375
28.375
28.375
28.375
28.375
28.3125
28.3125
28.375
28.375
28.375
28.375
28.3125
28.3125
28.3125
28.3125
28.3125
28.3125
28.3125
28.3125
28.3125
28.3125
28.3125
28.3125
28.3125
28.3125
28.25
28.3125
28.375
28.375
28.3125
28.375
28.375
28.3125
28.3125
28.375
28.375
28.375
28.375
28.375
28.375
28.375
28.4375
28.4375
28.4375
28.375
28.3125
28.3125
28.3125
28.3125
28.3125
28.3125
28.25
28.25
28.25
28.3125
28.3125
28.3125
28.3125
28.3125
28.3125
28.375
28.3125
28.3125
28.25
28.3125
28.3125
28.3125
28.3125
28.3125
28.3125
28.375
28.375
28.375
28.375
28.375
28.375
28.375
28.375
28.375
28.3125
28.3125
28.25
28.25
28.25
28.25
28.25
28.3125
28.25
28.25
28.25
28.375
28.3125
28.25
28.3125
28.3125
28.3125
28.25
28.25
28.25
28.25
28.1875
28.1875
28.25
28.3125
28.3125
28.3125
28.3125
28.375
28.375
28.375
28.375
28.4375
28.375
28.375
28.375
28.375
28.375
28.375
28.375
28.375
28.3125
28.3125
28.3125
28.3125
28.3125
28.3125
28.25
28.3125
28.3125
28.25
28.1875
28.1875
28.1875
28.25
28.25
28.25
28.25
28.25
28.3125
28.3125
28.3125
28.3125
28.3125
28.3125
28.3125
28.375
28.375
28.3125
28.3125
28.375
28.3125
28.3125
28.3125
28.3125
28.375
28.375
28.375
28.3125
28.3125
28.3125
28.3125
28.3125
28.25
28.25
28.3125
28.3125
28.3125
28.25
28.25
28.3125
28.3125
28.3125
28.25
28.25
28.25
28.3125
28.3125
28.25
28.25
28.25
28.25
28.25
28.25
28.25
28.25
28.25
28.3125
28.3125
28.3125
28.3125
28.3125
28.3125
28.3125
28.3125
28.25
28.1875
28.25
28.3125
28.3125
28.3125
28.3125
28.25
28.25
28.25
28.25
28.25
28.25
28.1875
28.1875
28.25
28.3125
28.3125
28.3125
28.25
28.25
28.25
28.3125
28.3125
28.3125
28.3125
28.3125
28.375
28.375
28.375
28.375
28.375
28.375
28.3125
28.3125
28.375
28.375
28.375
28.3125
28.25
28.25
28.25
28.25
28.25
28.1875
28.1875
28.1875
28.1875
28.1875
28.1875
28.25
28.25
28.25
28.25
28.25
28.25
28.25
28.25
28.3125
28.375
28.375
28.375
28.375
28.375
28.375
28.375
28.375
28.3125
28.3125
28.3125
28.25
28.25
28.3125
28.25
28.1875
28.1875
28.25
28.1875
28.1875
28.1875
28.25
28.25
28.25
28.25
28.25
28.25
28.1875
28.1875
28.25
28.25
28.25
28.25
28.25
28.3125
28.25
28.25
28.3125
28.3125
28.3125
28.3125
28.3125
28.3125
28.3125
28.3125
28.25
28.25
28.1875
28.25
28.1875
28.25
28.25
28.25
28.25
28.25
28.25
28.25
28.25
28.25
28.3125
28.25
28.25
28.3125
28.3125
28.3125
28.3125
28.375
28.3125
28.3125
28.375
28.3125
28.3125
28.3125
28.25
28.25
28.25
28.25
28.25
28.25
28.25
28.3125
28.3125
28.25
28.3125
28.3125
28.5
28.625
28.6875
28.75
28.8125
28.9375
29.0
29.0625
29.25
29.3125
29.3125
29.375
29.4375
29.5
29.5625
29.625
29.6875
29.75
29.8125
29.8125
29.875
29.875
29.875
29.9375
29.9375
29.9375
29.9375
29.875
29.875
29.875
29.875
29.875
29.875
29.875
29.8125
29.75
29.75
29.6875
29.6875
29.6875
29.6875
29.625
29.5625
29.5
29.5
29.5
29.5625
29.5
29.5
29.5625
29.5
29.5625
29.5625
29.5625
29.625
29.625
29.625
29.5625
29.5625
29.625
29.625
29.625
29.625
29.625
29.625
29.625
29.5625
29.5
29.5
29.4375
29.4375
29.4375
29.375
29.375
29.375
29.3125
29.3125
29.375
29.3125
29.25
29.25
29.3125
29.25
29.25
29.1875
29.1875
29.25
29.25
29.25
29.25
29.1875
29.1875
29.1875
29.25
29.3125
29.3125
29.25
29.25
29.25
29.3125
29.3125
29.3125
29.25
29.25
29.25
29.25
29.25
29.3125
29.25
29.25
29.1875
29.1875
29.1875
29.1875
29.1875
29.125
29.0625
29.0625
29.125
29.0625
29.0625
29.0625
29.0625
29.0625
29.0625
29.0625
29.0625
29.125
29.125
29.125
29.125
29.0625
29.0625
29.0625
29.125
29.125
29.125
29.125
29.125
29.125
29.125
29.125
29.125
29.125
29.125
29.0625
29.0625
29.0625
29.0625
29.0625
29.0625
29.0
29.0
29.0625
29.0625
29.0625
29.0625
29.0
29.0
29.0
29.0
29.0
28.9375
29.0
29.0
29.0
29.0
29.0
29.0
29.0
29.0
29.0
29.0
29.0
29.0
28.9375
28.9375
29.0
29.0
29.0
29.0625
29.0
29.0
29.0
29.0625
29.0625
29.0
29.0
29.0
28.9375
28.9375
28.9375
28.9375
28.9375
28.9375
28.9375
28.875
28.8125
28.875
28.9375
28.875
28.9375
28.9375
28.875
28.9375
28.9375
28.9375
28.9375
28.9375
28.9375
28.9375
28.9375
28.875
28.9375
28.9375
28.9375
28.9375
28.9375
28.9375
28.9375
28.9375
28.9375
28.9375
28.9375
28.9375
28.9375
28.9375
28.875
28.9375
28.875
28.875
28.875
28.875
28.875
28.875
28.875
28.875
28.8125
28.8125
28.8125
28.875
28.8125
28.8125
28.8125
28.8125
28.875
28.875
28.875
28.8125
28.8125
28.8125
28.8125
28.8125
28.8125
28.875
28.8125
28.8125
28.8125
28.8125
28.8125
28.8125
28.8125
28.8125
28.8125
28.8125
28.8125
28.8125
28.8125
28.8125
28.8125
28.8125
28.75
28.75
28.75
28.75
28.6875
28.75
28.75
28.8125
28.8125
28.8125
28.8125
28.8125
28.8125
28.8125
28.75
28.75
28.75
28.75
28.75
28.75
28.6875
28.6875
28.75
28.75
28.75
28.75
28.75
28.75
28.6875
28.75
28.75
28.75
28.75
28.6875
28.75
28.75
28.75
28.75
28.75
28.75
28.75
28.75
28.75
28.75
28.8125
28.8125
28.75
28.75
28.75
28.75
28.75
28.75
28.75
28.75
28.75
28.6875
28.6875
28.6875
28.75
28.75
28.75
28.6875
28.6875
28.6875
28.6875
28.6875
28.6875
28.6875
28.6875
28.6875
28.6875
28.6875
28.6875
28.6875
28.6875
28.6875
28.6875
28.6875
28.6875
28.6875
28.6875
28.6875
28.6875
28.75
28.75
28.75
28.75
28.75
28.6875
28.6875
28.6875
28.6875
28.6875
28.6875
28.6875
28.6875
28.6875
28.6875
28.6875
28.6875
28.6875
28.6875
28.6875
28.6875
28.6875
28.6875
28.6875
28.6875
28.6875
28.625
28.625
28.625
28.6875
28.6875
28.6875
28.6875
28.6875
28.6875
28.625
28.6875
28.6875
28.6875
28.6875
28.6875
28.625
28.625
28.625
28.625
28.625
28.625
28.625
28.625
28.625
28.625
28.625
28.625
28.625
28.625
28.625
28.625
28.625
28.625
28.625
28.625
28.625
28.625
28.625
28.625
28.625
28.625
28.625
28.5625
28.625
28.625
28.625
28.5625
28.625
28.625
28.625
28.625
28.625
28.625
28.625
28.625
28.6875
28.6875
28.6875
28.6875
28.625
28.625
28.625
28.6875
28.6875
28.625
28.625
28.625
28.625
28.625
28.625
28.625
28.5625
28.5625
28.625
28.625
28.625
28.625
28.5625
28.5625
28.5625
28.5625
28.625
28.625
28.625
28.5625
28.5625
28.625
28.625
28.625
28.625
28.5625
28.5625
28.5625
28.5625
28.625
28.625
28.5625
28.625
28.625
28.625
28.625
28.625
28.625
28.625
28.5625
28.625
28.625
28.625
28.625
28.625
28.625
28.625
28.625
28.625
28.625
28.625
28.625
28.5625
28.5625
28.5625
28.5625
28.5625
28.5625
28.5625
28.5625
28.5625
28.5625
28.5625
28.5
28.5
28.5625
28.5625
28.625
28.5625
28.5625
28.5625
28.5625
28.5625
28.5625
28.625
28.625
28.625
28.625
28.625
28.625
28.625
28.5625
28.5625
28.625
28.625
28.625
28.5625
28.5625
28.5625
28.625
28.625
28.5625
28.5625
28.5625
28.5
28.5625
28.5625
28.5625
28.5625
28.5625
28.5625
28.5
28.5
28.5625
28.5
28.5
28.5
28.5625
28.5625
28.5625
28.5625
28.5625
28.5
28.5625
28.5625
28.5625
28.5625
28.5625
28.5625
28.5625
28.5625
28.5625
28.5625
28.625
28.5625
28.5625
28.5625
28.5625
28.5625
28.5625
28.5625
28.5
28.5
28.5
28.5
28.5625
28.5
28.5625
28.5
28.5
28.5
28.4375
28.4375
28.4375
28.5
28.5
28.5
28.5
28.5
28.5
28.5
28.5
28.5625
28.5625
28.5625
28.5
28.5
28.5
28.5
28.5
28.5
28.5
28.5625
28.5625
28.5625
28.5625
28.5625
28.625
28.5625
28.5625
28.5625
28.5625
28.5
28.5
28.4375
28.4375
28.4375
28.4375
28.4375
28.5
28.5
28.4375
28.4375
28.4375
28.5
28.5
28.5
28.4375
28.4375
28.4375
28.5
28.5
28.5
28.5
28.5
28.5
28.5
28.5
28.5625
28.5
28.5
28.5
28.5
28.5
28.5
28.5
28.5
28.5
28.5
28.5
28.5
28.5625
28.5
28.5
28.5
28.5
28.5
28.4375
28.4375
28.4375
28.4375
28.4375
28.375
28.375
28.4375
28.4375
28.4375
28.4375
28.4375
28.4375
28.4375
28.4375
28.5
28.5
28.5
28.4375
28.4375
28.4375
28.4375
28.4375
28.5
28.5
28.5
28.5
28.4375
28.4375
28.4375
28.5
28.5
28.5
28.5
28.5
28.4375
28.4375
28.4375
28.5
28.5
28.4375
28.4375
28.4375
28.4375
28.5
28.4375
28.4375
28.4375
28.4375
28.375
28.375
28.4375
28.375
28.375
28.375
28.4375
28.4375
28.4375
28.4375
28.4375
28.4375
28.5
28.5
28.5
28.5
28.5
28.5
28.5625
28.5
28.5
28.5
28.5
28.5
28.4375
28.4375
28.4375
28.4375
28.4375
28.5
28.4375
28.4375
28.4375
28.5
28.5
28.5
28.5
28.5
28.5
28.4375
28.4375
28.375
28.375
28.4375
28.375
28.375
28.375
28.375
28.375
28.375
28.3125
28.3125
28.375
28.375
28.375
28.4375
28.4375
28.4375
28.5
28.5
28.5
28.5
28.5
28.5625
28.5625
28.5625
28.5
28.5
28.5
28.4375
28.375
28.375
28.4375
28.375
28.375
28.3125
28.3125
28.25
28.25
28.25
28.25
28.3125
28.25
28.3125
28.3125
28.3125
28.375
28.375
28.375
28.375
28.4375
28.4375
28.4375
28.5
28.5
28.5
28.5
28.5
28.5
28.4375
28.5
28.4375
28.4375
28.4375
28.4375
28.375
28.375
28.375
28.375
28.375
28.375
28.3125
28.3125
28.375
28.375
28.375
28.375
28.375
28.3125
28.3125
28.3125
28.375
28.375
28.375
28.375
28.375
28.375
28.375
28.375
28.375
28.375
28.375
28.375
28.4375
28.4375
28.4375
28.375
28.4375
28.5
28.375
28.375
28.375
28.375
28.375
28.375
28.375
28.375
28.3125
28.375
28.375
28.3125
28.3125
28.375
28.375
28.375
28.375
28.3125
28.3125
28.3125
28.3125
28.375
28.375
28.375
28.4375
28.4375
28.4375
28.4375
28.375
28.4375
28.4375
28.4375
28.375
28.375
28.3125
28.375
28.375
28.3125
28.3125
28.3125
28.3125
28.3125
28.3125
28.3125
28.3125
28.3125
28.25
28.3125
28.3125
28.25
28.3125
28.3125
28.3125
28.3125
28.375
28.3125
28.3125
28.375
28.375
28.375
28.375
28.3125
28.3125
28.3125
28.375
28.3125
28.3125
28.375
28.375
28.375
28.3125
28.3125
28.3125
28.3125
28.3125
28.3125
28.3125
28.375
28.375
28.375
28.375
28.375
28.375
28.375
28.3125
28.3125
28.3125
28.25
28.25
28.1875
28.1875
28.25
28.25
28.25
28.25
28.25
28.3125
28.375
28.375
28.375
28.4375
28.4375
28.375
28.375
28.375
28.375
28.375
28.375
28.3125
28.3125
28.3125
28.3125
28.3125
28.3125
28.3125
28.3125
28.3125
28.375
28.375
28.375
28.375
28.375
28.3125
28.3125
28.3125
28.3125
28.3125
28.3125
28.375
28.375
28.3125
28.25
28.25
28.25
28.25
28.25
28.3125
28.25
28.1875
28.25
28.25
28.3125
28.375
28.375
28.375
28.375
28.375
28.4375
28.4375
28.5
28.5
28.4375
28.4375
28.4375
28.4375
28.375
28.3125
28.3125
28.25
28.25
28.25
28.25
28.25
28.25
28.25
28.25
28.25
28.25
28.25
28.25
28.25
28.3125
28.3125
28.3125
28.375
28.375
28.375
28.375
28.375
28.4375
28.4375
28.5
28.5
28.4375
28.375
28.375
28.375
28.3125
28.25
28.25
28.3125
28.25
28.1875
28.1875
28.1875
28.1875
28.1875
28.25
28.25
28.3125
28.3125
28.375
28.375
28.375
28.375
28.375
28.4375
28.4375
28.4375
28.375
28.375
28.375
28.4375
28.4375
28.4375
28.4375
28.375
28.375
28.375
28.3125
28.25
28.25
28.25
28.1875
28.1875
28.1875
28.25
28.25
28.1875
28.25
28.25
28.25
28.25
28.25
28.3125
28.375
28.375
28.4375
28.4375
28.375
28.4375
28.4375
28.4375
28.375
28.4375
28.4375
28.375
28.375
28.3125
28.25
28.25
28.3125
28.25
28.1875
28.125
28.1875
28.125
28.125
28.125
28.125
28.125
28.125
28.125
28.1875
28.25
28.3125
28.3125
28.3125
28.375
28.375
28.375
28.375
28.375
28.4375
28.4375
28.4375
28.4375
28.4375
28.4375
28.4375
28.4375
28.375
28.375
28.375
28.375
28.3125
28.3125
28.25
28.25
28.1875
28.1875
28.1875
28.1875
28.1875
28.125
28.125
28.125
28.125
28.125
28.125
28.1875
28.1875
28.25
28.25
28.25
28.3125
28.3125
28.3125
28.375
28.375
28.375
28.375
28.375
28.375
28.375
28.375
28.375
28.375
28.375
28.3125
28.25
28.25
28.25
28.25
28.25
28.1875
28.1875
28.1875
28.1875
28.25
28.375
28.5625
28.6875
28.75
28.875
29.0
29.125
29.25
29.3125
29.4375
29.5
29.5
29.5
29.5625
29.625
29.6875
29.75
29.75
29.8125
29.75
29.75
29.75
29.75
29.75
29.75
29.75
29.75
29.75
29.75
29.75
29.6875
29.75
29.8125
29.8125
29.875
29.8125
29.875
29.875
29.9375
29.9375
29.9375
29.9375
29.875
29.875
29.875
29.8125
29.75
29.75
29.75
29.75
29.75
29.75
29.6875
29.625
29.625
29.625
29.5625
29.5
29.5
29.5
29.4375
29.375
29.375
29.375
29.375
29.375
29.375
29.375
29.375
29.4375
29.4375
29.5
29.5
29.5
29.5
29.5625
29.5625
29.5625
29.5625
29.5625
29.5625
29.5
29.5
29.4375
29.4375
29.4375
29.4375
29.4375
29.4375
29.3125
29.25
29.25
29.1875
29.125
29.125
29.0625
29.0625
29.125
29.125
29.0625
29.0625
29.0625
29.0
29.0
29.0
29.0625
29.0625
29.0625
29.125
29.125
29.1875
29.25
29.3125
29.5625
29.8125
29.75
29.375
29.0625
29.0
29.0
29.0625
29.25
29.4375
29.3125
29.0625
28.75
28.875
29.1875
29.375
29.3125
29.25
29.1875
29.125
29.0
28.875
28.875
28.875
28.9375
28.9375
29.0
29.0625
29.125
29.0625
29.0625
29.125
29.0625
28.9375
28.9375
29.0
29.0625
29.0625
29.0625
29.0625
29.125
29.1875
29.1875
29.1875
29.25
29.3125
29.3125
29.3125
29.125
29.125
29.0625
29.0625
29.0
29.0
29.0
28.9375
28.75
28.6875
28.8125
29.0625
29.25
29.1875
29.125
29.125
29.1875
29.1875
29.125
29.0
29.0
29.0625
29.125
29.125
28.9375
28.875
28.875
28.9375
28.9375
28.9375
28.9375
28.875
28.8125
28.875
28.9375
29.0625
29.125
29.125
29.125
29.125
29.0625
29.0
28.9375
29.0
29.0
28.9375
28.875
29.0625
29.25
29.1875
29.0
28.9375
29.0
29.125
29.1875
29.125
27.6875
27.1875
27.5
28.1875
28.8125
29.0625
29.4375
29.5625
29.5625
29.0625
28.6875
28.3125
28.1875
28.0
28.125
28.5
28.75
28.4375
28.5625
28.75
29.25
29.5
29.5625
29.375
29.4375
29.75
29.625
29.125
28.4375
28.1875
28.25
28.4375
28.375
28.5625
29.3125
30.4375
30.25
29.1875
28.4375
28.875
29.6875
29.9375
29.1875
28.3125
27.875
27.8125
27.75
27.75
27.8125
28.0
28.5
28.9375
28.1875
27.375
31.3125
37.1875
40.0
38.6875
34.125
26.125
19.125
16.75
23.5
27.0
26.8125
26.25
27.1875
27.5
28.5625
29.25
29.375
27.875
25.875
25.0625
26.75
28.875
30.0
29.5625
29.5
30.75
31.5
29.0
26.375
25.125
27.5625
32.4375
35.4375
34.9375
31.375
27.0
25.25
27.625
29.3125
28.1875
26.75
27.1875
28.1875
28.125
27.4375
26.5625
26.25
26.0625
26.25
27.125
29.8125
31.4375
29.625
26.8125
25.3125
25.875
27.6875
29.875
32.4375
34.8125
34.5
31.5625
27.0
23.75
22.625
23.4375
25.4375
27.3125
28.375
29.0
29.25
29.25
28.8125
28.4375
28.1875
28.375
29.125
30.375
31.9375
32.75
32.0
29.875
27.1875
25.0625
24.125
24.5625
26.0625
27.5
28.75
29.4375
29.6875
29.375
29.125
29.0625
29.125
29.0
28.6875
28.25
28.4375
28.625
28.6875
28.6875
28.6875
28.5
28.3125
28.3125
28.6875
29.3125
30.125
31.0
31.5
31.125
29.9375
28.25
27.125
28.125
29.3125
28.5
27.125
26.75
28.125
29.3125
28.6875
27.6875
28.125
29.75
31.3125
31.75
30.75
28.9375
27.3125
25.9375
25.0625
24.875
25.5
26.875
28.0625
28.8125
29.4375
30.0
30.6875
31.1875
31.0625
30.3125
29.25
28.1875
26.9375
25.8125
25.1875
25.25
25.875
27.0
28.1875
29.0
29.5
29.8125
30.1875
30.375
30.3125
30.1875
30.1875
29.9375
29.4375
28.5
27.5625
27.0
26.6875
26.625
26.6875
27.375
28.375
29.375
30.125
30.625
31.4375
32.125
31.375
29.6875
28.25
27.625
27.5
27.5
27.4375
27.0625
26.6875
26.875
27.8125
29.0625
29.75
29.75
29.5625
29.5
29.375
28.9375
28.3125
27.875
27.5625
27.25
27.125
27.3125
27.8125
28.25
28.6875
29.125
29.6875
30.0
30.0625
29.75
29.25
28.625
28.0625
27.5625
27.3125
27.375
27.6875
28.1875
28.625
28.9375
29.3125
29.625
29.75
29.6875
29.625
29.5
29.375
29.0
28.5625
28.125
28.1875
28.5
28.4375
28.25
28.0625
28.375
29.0
29.5
29.5
29.1875
28.8125
28.5625
28.375
28.0625
27.8125
27.875
28.1875
28.5625
28.75
28.8125
28.875
29.0
29.0
28.8125
28.625
28.5
28.5625
28.5625
28.375
28.3125
28.3125
28.4375
28.5625
28.625
28.75
28.875
28.9375
29.0
29.0
28.875
28.5625
28.25
28.125
28.125
28.25
28.5
28.6875
28.875
29.0625
29.1875
29.0625
28.875
28.6875
28.4375
28.375
28.3125
28.375
28.5
28.5625
28.8125
28.875
28.8125
28.8125
28.875
28.875
28.8125
28.6875
28.625
28.625
28.625
28.5
28.375
28.1875
28.125
28.3125
28.625
28.9375
29.0
28.9375
28.75
28.625
28.5625
28.4375
28.375
28.375
28.375
28.5625
28.6875
28.6875
28.625
28.6875
28.75
28.8125
28.8125
28.75
28.75
28.75
28.6875
28.625
28.5625
28.5625
28.625
28.625
28.75
28.75
28.75
28.75
28.8125
28.8125
28.75
28.6875
28.5625
28.5625
28.5
28.4375
28.4375
28.5
28.5
28.5625
28.625
28.6875
28.6875
28.6875
28.75
28.625
28.625
28.5625
28.5
28.5
28.5
28.5
28.5
28.5625
28.6875
28.75
28.8125
28.9375
28.8125
28.5
28.3125
28.3125
28.375
28.4375
28.5
28.5
28.5625
28.625
28.6875
28.6875
28.75
28.6875
28.6875
28.625
28.625
28.5625
28.5
28.4375
28.375
28.375
28.4375
28.4375
28.4375
28.5
28.625
28.75
28.875
28.75
28.625
28.5
28.5
28.5
28.5
28.5
28.5
28.625
28.6875
28.75
28.75
28.75
28.75
28.6875
28.625
28.5625
28.5625
28.5625
28.625
28.5625
28.5625
28.5625
28.5625
28.625
28.6875
28.6875
28.6875
28.625
28.625
28.625
28.5625
28.5625
28.5625
28.5625
28.5625
28.625
28.625
28.625
28.625
28.625
28.625
28.5625
28.5625
28.5625
28.5625
28.5625
28.5625
28.5625
28.5
28.5625
28.5625
28.5625
28.5625
28.5625
28.5625
28.5625
28.5625
28.5625
28.5
28.5
28.5
28.5
28.5
28.4375
28.5
28.5
28.5625
28.5625
28.5
28.5625
28.5625
28.5625
28.5625
28.5625
28.5
28.5
28.5
28.5
28.5625
28.625
28.625
28.625
28.625
28.625
28.625
28.5625
28.5625
28.625
28.625
28.5625
28.5625
28.5625
28.5625
28.5625
28.625
28.625
28.625
28.6875
28.625
28.625
28.5625
28.5625
28.5
28.5
28.5
28.5625
28.5625
28.625
28.625
28.625
28.625
28.6875
28.6875
28.625
28.5625
28.5
28.5
28.5
28.5
28.5
28.5
28.5625
28.5625
28.5625
28.5625
28.625
28.5625
28.5
28.5
28.5
28.5
28.5
28.4375
28.5
28.5
28.5
28.5625
28.5625
28.5625
28.5625
28.5625
28.5
28.4375
28.4375
28.4375
28.4375
28.4375
28.5
28.5
28.5625
28.5625
28.5625
28.5625
28.5625
28.5625
28.5625
28.5
28.5625
28.5625
28.5625
28.625
28.5625
28.5625
28.5625
28.5
28.5
28.5
28.5
28.5
28.5
28.5625
28.5
28.5
28.5
28.5
28.5
28.5
28.5
28.5
28.5
28.5
28.5
28.5
28.4375
28.4375
28.4375
28.4375
28.4375
28.4375
28.4375
28.4375
28.5
28.5
28.5
28.5
28.5
28.5
28.5
28.5
28.5
28.5
28.5
28.5
28.5
28.5
28.5
28.5
28.5
28.5
28.5
28.5
28.5
28.5
28.4375
28.4375
28.5
28.5
28.4375
28.4375
28.4375
28.4375
28.5
28.5
28.5
28.5
28.4375
28.4375
28.4375
28.4375
28.4375
28.4375
28.4375
28.375
28.375
28.4375
28.5
28.5
28.4375
28.4375
28.375
28.375
28.4375
28.375
28.375
28.375
28.375
28.375
28.375
28.375
28.4375
28.4375
28.5
28.5
28.4375
28.4375
28.375
28.375
28.375
28.4375
28.4375
28.4375
28.4375
28.4375
28.5
28.4375
28.4375
28.4375
28.5
28.4375
28.4375
28.4375
28.4375
28.4375
28.4375
28.5
28.5
28.5
28.5
28.5
28.5
28.5
28.5
28.5
28.5
28.4375
28.375
28.375
28.4375
28.5
28.5
28.5
28.5
28.5
28.5
28.4375
28.4375
28.4375
28.375
28.4375
28.375
27.9375
27.6875
27.6875
27.875
28.1875
29.1875
30.125
30.125
28.875
28.1875
27.625
27.1875
26.625
26.5
26.875
27.5625
28.25
29.25
30.0
30.5625
30.6875
30.3125
29.4375
28.1875
27.0625
26.25
26.0625
26.625
27.75
28.3125
28.4375
28.3125
28.8125
29.625
30.3125
30.25
29.9375
29.4375
29.0625
28.3125
27.5625
26.875
26.4375
26.1875
26.5625
27.4375
28.375
29.0
29.4375
29.75
30.0
29.875
29.4375
28.75
28.0625
27.5625
27.125
26.875
26.875
27.3125
28.0625
28.875
29.25
29.5
29.6875
29.75
29.375
28.9375
28.6875
28.5625
28.375
28.125
27.875
28.0
28.0625
27.8125
27.5
27.625
28.3125
29.0625
29.6875
30.0
30.125
30.0
29.4375
28.375
27.0625
26.25
26.125
26.625
27.4375
28.25
29.0
29.5
29.8125
30.0
30.0
29.5
28.625
27.875
27.375
27.0
26.875
27.0
27.375
28.0
28.625
29.125
29.4375
29.75
29.875
29.75
29.4375
29.0
28.75
28.6875
28.625
28.375
28.3125
28.5625
29.0
29.4375
29.9375
30.4375
30.8125
31.0625
30.9375
30.5
29.875
29.375
29.125
29.0625
29.0625
29.125
29.4375
29.875
30.3125
30.6875
30.875
31.0625
31.125
30.875
30.375
29.8125
29.5625
29.5625
29.6875
29.6875
29.5625
29.3125
29.4375
29.8125
30.4375
30.625
30.375
29.875
29.6875
29.875
30.0
29.75
29.375
29.1875
29.3125
29.5
29.5625
29.625
29.8125
30.0
30.1875
30.1875
30.0625
29.8125
29.625
29.4375
29.25
29.1875
29.1875
29.25
29.4375
29.8125
30.125
30.0625
29.6875
29.5
29.625
29.75
29.625
29.3125
29.0625
28.9375
29.0
28.9375
28.875
29.0
29.25
29.375
29.4375
29.5
29.5
29.4375
29.25
29.125
29.125
29.1875
29.25
29.3125
29.375
29.4375
29.5
29.5625
29.5625
29.5
29.5
29.4375
29.375
29.3125
29.25
29.1875
29.1875
29.1875
29.25
29.3125
29.375
29.375
29.375
29.4375
29.375
29.375
29.3125
29.25
29.1875
29.1875
29.25
29.25
29.3125
29.4375
29.5625
29.8125
29.875
29.6875
29.4375
29.25
29.25
29.25
29.1875
29.1875
29.25
29.3125
29.25
29.125
29.125
29.125
29.1875
29.3125
29.375
29.4375
29.375
29.3125
29.1875
29.0625
29.0
29.0
29.0
29.0
29.0625
29.0625
29.0625
29.125
29.125
29.0625
29.0
28.9375
28.9375
28.9375
28.875
28.75
28.75
28.75
28.9375
29.0625
29.0625
29.125
29.1875
29.125
29.125
29.0625
29.0
29.0625
29.0625
29.0625
29.0625
29.0625
29.0625
29.125
29.125
29.0625
29.0625
29.0625
29.125
29.125
29.125
29.125
29.125
29.125
29.125
29.125
29.125
29.125
29.125
29.1875
29.125
29.125
29.25
29.3125
29.3125
29.375
29.375
29.3125
29.3125
29.3125
29.4375
29.5625
29.4375
29.1875
29.0
29.0625
29.125
29.1875
29.1875
29.125
29.0625
29.0
28.875
28.75
28.75
28.8125
28.875
29.0
29.125
29.0625
29.0625
29.0
28.875
28.8125
28.8125
28.8125
28.8125
28.8125
28.875
28.9375
28.9375
29.0
28.9375
28.9375
28.9375
28.9375
28.9375
28.875
28.8125
28.875
29.0625
29.0625
29.125
29.3125
29.5
29.625
29.625
29.6875
29.8125
29.8125
29.875
29.875
29.9375
30.0
30.0
30.0
30.0
30.0
30.0625
30.0625
30.0625
30.0625
30.125
30.125
30.0625
30.0625
30.0625
30.0625
30.0
30.0
30.0625
30.0625
30.0625
30.0
30.0
30.0
29.9375
29.9375
30.0
30.0
30.0
29.9375
29.9375
29.9375
29.9375
29.9375
29.9375
29.9375
29.9375
29.875
29.875
29.875
29.875
29.875
29.8125
29.75
29.625
29.5
29.375
29.375
29.4375
29.5
29.5625
29.5625
29.5625
29.5625
29.5
29.3125
29.3125
29.375
29.4375
29.5
29.625
29.625
29.625
29.625
29.5625
29.4375
29.4375
29.5
29.4375
29.375
29.3125
29.3125
29.3125
29.3125
29.3125
29.375
29.375
29.375
29.375
29.375
29.4375
29.375
29.375
29.375
29.375
29.375
29.4375
29.375
29.375
29.4375
29.4375
29.375
29.375
29.375
29.4375
29.4375
29.375
29.375
29.375
29.4375
29.375
29.375
29.375
29.3125
29.3125
29.375
29.375
29.375
29.375
29.3125
29.3125
29.25
29.25
29.25
29.3125
29.3125
29.3125
29.3125
29.3125
29.3125
29.3125
29.3125
29.25
29.3125
29.3125
29.25
29.25
29.25
29.1875
29.1875
29.1875
29.1875
29.1875
29.1875
29.1875
29.1875
29.1875
29.1875
29.1875
29.1875
29.1875
29.125
29.125
29.125
29.125
29.125
29.1875
29.1875
29.1875
29.125
29.125
29.125
29.125
29.125
29.125
29.125
29.125
29.125
29.125
29.125
29.125
29.125
29.125
29.125
29.125
29.0625
29.125
29.125
29.125
29.125
29.0625
29.125
29.125
29.125
29.125
29.125
29.125
29.1875
29.1875
29.125
29.1875
29.125
29.125
29.125
29.125
29.125
29.125
29.125
29.1875
29.125
29.0625
29.0625
29.125
29.125
29.125
29.125
29.125
29.125
29.125
29.0625
29.125
29.125
29.125
29.125
29.0625
29.0625
29.0625
29.0625
29.0625
29.0625
29.0625
29.0625
29.0625
29.0
29.0
29.0625
29.0625
29.0625
29.0
29.0
29.0625
29.0
29.0
29.0
29.0
29.0625
29.0
29.0
29.0625
29.0625
29.0625
29.0625
29.0625
29.0
29.0
29.0
29.0
29.0
29.0
29.0
29.0
29.0625
29.0
29.0
29.0
29.0
29.0
29.0
29.0
29.0
29.0
29.0
29.0
29.0
28.9375
29.0
29.0
29.0
28.9375
28.9375
28.9375
28.9375
28.9375
29.0
29.0
29.0
29.0
29.0
29.0
28.9375
28.9375
28.9375
28.9375
28.9375
28.9375
28.9375
29.0
29.0
29.0
29.0
29.0
28.9375
28.9375
28.9375
28.9375
29.0
28.9375
28.9375
29.0
29.0
29.0
29.0625
29.0625
28.9375
28.875
28.8125
28.75
28.75
28.75
28.8125
28.8125
28.8125
28.8125
28.875
28.9375
28.875
28.9375
29.0
29.0625
29.0
28.875
28.6875
28.6875
28.875
29.125
29.0625
28.8125
28.625
28.8125
29.125
29.125
28.875
28.5625
28.5625
28.8125
29.0
28.8125
28.625
28.5625
28.8125
29.1875
29.1875
28.9375
28.75
28.75
28.875
28.875
28.6875
28.5625
28.5625
28.625
28.625
28.6875
28.75
28.8125
28.875
28.875
28.9375
28.9375
29.0
29.0
28.9375
28.9375
28.875
28.8125
28.8125
28.75
28.75
28.875
29.0625
29.1875
29.0625
28.9375
28.9375
29.0
28.9375
28.8125
28.75
28.75
28.8125
28.8125
28.875
28.8125
28.8125
28.8125
28.8125
28.8125
28.875
28.875
28.875
28.875
28.875
28.875
28.875
28.875
28.8125
28.875
28.875
29.0
29.0
29.0
29.0
29.0625
29.0
28.8125
28.625
28.5625
28.625
28.6875
28.6875
28.6875
28.75
28.8125
28.8125
28.6875
28.625
28.625
28.75
28.8125
28.8125
28.8125
28.8125
28.75
28.6875
28.625
28.625
28.6875
28.75
28.75
28.75
28.75
28.75
28.75
28.75
28.75
28.75
28.75
28.75
28.75
28.75
28.6875
28.75
28.8125
28.875
28.9375
28.9375
28.875
28.875
28.8125
28.8125
28.75
28.75
28.875
28.9375
28.875
28.875
28.8125
28.8125
28.8125
28.8125
28.8125
28.8125
28.75
28.8125
28.8125
28.75
28.75
28.75
28.8125
28.875
28.9375
28.875
28.875
28.875
28.875
28.8125
28.8125
28.8125
28.8125
28.8125
28.875
28.8125
28.8125
28.8125
28.8125
28.8125
28.75
28.75
28.75
28.75
28.6875
28.6875
28.6875
28.6875
28.6875
28.6875
28.75
28.75
28.75
28.75
28.625
28.5625
28.5
28.5625
28.625
28.6875
28.6875
28.75
28.75
28.8125
28.75
28.6875
28.6875
28.75
28.8125
28.75
28.75
28.6875
28.75
28.6875
28.6875
28.6875
28.6875
28.6875
28.6875
28.6875
28.75
28.8125
28.8125
28.8125
28.875
28.875
28.8125
28.8125
28.8125
28.75
28.75
28.8125
28.8125
28.8125
28.8125
28.8125
28.875
28.8125
28.8125
28.8125
28.75
28.75
28.75
28.75
28.75
28.75
28.75
28.75
28.75
28.75
28.75
28.75
28.75
28.75
28.75
28.75
28.75
28.6875
28.6875
28.75
28.75
28.75
28.6875
28.6875
28.6875
28.6875
28.6875
28.6875
28.6875
28.625
28.6875
28.6875
28.6875
28.625
28.6875
28.6875
28.6875
28.625
28.625
28.625
28.625
28.625
28.6875
28.6875
28.6875
28.6875
28.6875
28.6875
28.6875
28.6875
28.6875
28.6875
28.6875
28.6875
28.6875
28.6875
28.6875
28.6875
28.6875
28.6875
28.75
28.75
28.6875
28.6875
28.75
28.75
28.6875
28.6875
28.75
28.75
28.75
28.75
28.75
28.75
28.6875
28.6875
28.6875
28.75
28.75
28.75
28.6875
28.75
28.75
28.75
28.75
28.75
28.75
28.75
28.6875
28.6875
28.6875
28.6875
28.6875
28.75
28.75
28.6875
28.6875
28.6875
28.6875
28.6875
28.6875
28.6875
28.6875
28.6875
28.6875
28.6875
28.6875
28.625
28.625
28.6875
28.6875
28.6875
28.625
28.625
28.6875
28.6875
28.6875
28.6875
28.6875
28.6875
28.6875
28.625
28.625
28.625
28.625
28.625
28.625
28.6875
28.6875
28.625
28.625
28.625
28.625
28.6875
28.6875
28.6875
28.625
28.625
28.5625
28.625
28.625
28.625
28.6875
28.6875
28.6875
28.6875
28.6875
28.75
28.75
28.6875
28.6875
28.6875
28.6875
28.6875
28.6875
28.6875
28.6875
28.6875
28.6875
28.625
28.625
28.6875
28.6875
28.6875
28.6875
28.6875
28.6875
28.6875
28.6875
28.6875
28.6875
28.6875
28.6875
28.6875
28.625
28.625
28.625
28.625
28.625
28.625
28.625
28.6875
28.625
28.625
28.625
28.625
28.625
28.625
28.6875
28.625
28.625
28.625
28.625
28.625
28.625
28.625
28.5625
28.5625
28.625
28.625
28.625
28.625
28.625
28.625
28.625
28.625
28.625
28.625
28.625
28.625
28.6875
28.6875
28.6875
28.625
28.625
28.6875
28.625
28.5625
28.625
28.625
28.625
28.625
28.625
28.625
28.625
28.625
28.5625
28.625
28.625
28.625
28.625
28.625
28.625
28.625
28.625
28.625
28.625
28.625
28.625
28.625
28.625
28.625
28.6875
28.625
28.625
28.625
28.625
28.625
28.625
28.625
28.625
28.625
28.625
28.5625
28.625
28.625
28.5625
28.5625
28.5625
28.625
28.625
28.5625
28.5625
28.5625
28.5625
28.5625
28.5625
28.5625
28.5625
28.625
28.625
28.625
28.625
28.5625
28.5625
28.5625
28.5625
28.5625
28.5625
28.5625
28.5625
28.5625
28.5625
28.625
28.625
28.625
28.5625
28.5625
28.5625
28.5625
28.5625
28.5625
28.5625
28.5625
28.5625
28.5625
28.5625
28.625
28.5625
28.5625
28.5625
28.5625
28.625
28.5625
28.5625
28.5
28.5
28.5625
28.5
28.5625
28.5625
28.5625
28.625
28.625
28.625
28.625
28.625
28.5625
28.5625
28.5625
28.5625
28.5625
28.5625
28.5625
28.5625
28.5625
28.5625
28.5625
28.5625
28.5625
28.5625
28.5625
28.5625
28.5625
28.5625
28.5625
28.5625
28.5625
28.5625
28.5625
28.625
28.625
28.5625
28.5625
28.5
28.5625
28.5625
28.5625
28.5625
28.5625
28.5
28.5625
28.5625
28.5625
28.5625
28.5625
28.5625
28.5625
28.5
28.5625
28.5
28.5
28.5
28.5625
28.5
28.5
28.5
28.5625
28.5625
28.5625
28.5625
28.5625
28.5625
28.5625
28.5625
28.5625
28.5625
28.5625
28.5625
28.5625
28.5625
28.5625
28.5625
28.5625
28.5
28.5
28.5625
28.5625
28.5625
28.5
28.5
28.5
28.5
28.5
28.5
28.5
28.5625
28.5625
28.5625
28.5625
28.5625
28.5625
28.5625
28.5625
28.5625
28.5625
28.5625
28.5625
28.5625
28.5625
28.5625
28.5625
28.5625
28.5625
28.5625
28.5625
28.5625
28.5625
28.5625
28.5625
28.5625
28.5625
28.5625
28.5625
28.5625
28.5625
28.5625
28.5625
28.5625
28.5625
28.5625
28.5625
28.5
28.5625
28.5
28.5
28.5
28.5625
28.5625
28.5625
28.5625
28.5625
28.5625
28.5
28.5
28.5625
28.5625
28.5625
28.5625
28.5
28.5
28.5
28.5
28.5
28.5625
28.5625
28.5625
28.5625
28.5625
28.5625
28.5
28.5
28.5625
28.5625
28.5625
28.5
28.5
28.5
28.5625
28.5625
28.5
28.5
28.5
28.5625
28.5625
28.5625
28.5625
28.5625
28.5
28.5625
28.5625
28.5
28.5
28.5
28.5
28.5
28.5
28.5
28.5
28.5625
28.5625
28.5625
28.5
28.5
28.5
28.5625
28.5
28.5625
28.5
28.5
28.5625
28.5625
28.5625
28.5
28.5
28.5
28.5
28.5
28.5
28.5
28.5
28.5
28.5
28.5
28.5
28.5
28.5
28.5
28.5
28.5
28.5
28.5
28.5
28.5
28.5
28.5
28.5
28.5
28.5
28.5
28.5
28.5
28.5
28.5
28.5
28.5625
28.5625
28.5625
28.5625
28.5
28.5
28.5
28.5
28.5
28.5
28.5
28.5
28.5625
28.5
28.5625
28.625
28.5
28.5
28.5
28.5
28.5
28.5
28.5
28.5
28.5625
28.5
28.5
28.5
28.5
28.5
28.5
28.5
28.5
28.5625
28.5
28.5
28.5
28.5
28.5
28.5
28.5
28.5
28.5
28.5
28.5
28.5625
28.5
28.5
28.5
28.5
28.5
28.5
28.5
28.5
28.5625
28.5625
28.5
28.5
28.5
28.5
28.5
28.5
28.5
28.5
28.5
28.5
28.5
28.5
28.5
28.5
28.5
28.5
28.5
28.5
28.5
28.5
28.5625
28.5
28.5
28.5
28.5
28.5
28.5
28.5
28.5
28.5625
28.5625
28.5
28.5
28.5
28.5
28.5
28.5
28.5625
28.5
28.5
28.5
28.5
28.5
28.5
28.5
28.5
28.5
28.5
28.5
28.5
28.5
28.5
28.5625
28.5625
28.5
28.5
28.5
28.5
28.5
28.5
28.5
28.5625
28.5625
28.5
28.5
28.5
28.5
28.5
28.5
28.5
28.5
28.5
28.5
28.5
28.5
28.5
28.5
28.5
28.5
28.5
28.5
28.5
28.5
28.4375
28.4375
28.5
28.4375
28.4375
28.5
28.5
28.4375
28.4375
28.5
28.5
28.5
28.5
28.5
28.5
28.4375
28.4375
28.4375
28.4375
28.5
28.5
28.5
28.5
28.5
28.5
28.5
28.5
28.5
28.5
28.5
28.5
28.5
28.5
28.5
28.5
28.5
28.5
28.5
28.5
28.4375
28.4375
28.4375
28.5
28.5
28.5
28.5
28.5
28.5
28.5
28.5
28.5
28.5
28.5
28.5
28.5
28.5
28.5
28.5
28.5
28.5
28.5
28.5
28.5
28.5
28.6875
28.8125
28.9375
29.0
29.0625
29.25
29.3125
29.375
29.375
29.5
29.5625
29.625
29.6875
29.75
29.8125
29.875
29.9375
29.9375
30.0
30.0625
30.0625
30.0625
30.0625
30.0625
30.0625
30.0625
30.0625
30.0625
30.0625
30.0625
30.0625
30.0625
30.125
30.125
30.0625
30.0625
30.0625
30.0625
30.0
30.0
30.0
30.0
30.0
30.0
29.9375
29.9375
29.9375
29.875
29.875
29.875
29.875
29.875
29.875
29.875
29.875
29.875
29.875
29.875
29.8125
29.8125
29.8125
29.75
29.75
29.75
29.75
29.8125
29.75
29.6875
29.6875
29.6875
29.6875
29.75
29.6875
29.625
29.625
29.6875
29.625
29.625
29.625
29.6875
29.6875
29.625
29.625
29.625
29.5625
29.625
29.625
29.5625
29.5625
29.5625
29.5
29.5
29.5
29.5
29.5625
29.5625
29.5625
29.5
29.5
29.5
29.4375
29.4375
29.4375
29.4375
29.4375
29.5
29.4375
29.4375
29.4375
29.4375
29.375
29.4375
29.375
29.375
29.375
29.375
29.375
29.375
29.375
29.375
29.375
29.375
29.375
29.375
29.375
29.375
29.375
29.375
29.375
29.375
29.375
29.375
29.375
29.375
29.375
29.3125
29.375
29.375
29.3125
29.3125
29.3125
29.3125
29.375
29.375
29.375
29.375
29.375
29.3125
29.25
29.25
29.3125
29.375
29.3125
29.3125
29.3125
29.3125
29.25
29.25
29.25
29.3125
29.25
29.3125
29.3125
29.3125
29.25
29.25
29.3125
29.3125
29.25
29.25
29.25
29.25
29.25
29.25
29.25
29.25
29.25
29.25
29.25
29.25
29.25
29.25
29.1875
29.1875
29.1875
29.25
29.1875
29.1875
29.25
29.25
29.25
29.1875
29.1875
29.1875
29.1875
29.1875
29.1875
29.1875
29.125
29.125
29.1875
29.1875
29.1875
29.1875
29.1875
29.125
29.1875
29.1875
29.1875
29.1875
29.1875
29.1875
29.125
29.1875
29.1875
29.1875
29.1875
29.1875
29.1875
29.1875
29.1875
29.1875
29.1875
29.1875
29.1875
29.1875
29.125
29.125
29.1875
29.1875
29.1875
29.1875
29.125
29.125
29.1875
29.1875
29.1875
29.125
29.125
29.125
29.125
29.125
29.125
29.125
29.0625
29.0625
29.125
29.125
29.125
29.125
29.125
29.125
29.0625
29.125
29.125
29.125
29.125
29.125
29.0625
29.0625
29.0625
29.0
29.0625
29.0625
29.0625
29.0625
29.0625
29.0625
29.0625
29.0625
29.0625
29.0625
29.0625
29.0625
29.0625
29.0625
29.0625
29.0625
29.0625
29.0625
29.0625
29.0
29.0
29.0
29.0625
29.0625
29.0625
29.0625
29.0625
29.0625
29.0625
29.0625
29.0625
29.0
29.0
29.0625
29.0625
29.0625
29.0
29.0625
29.0625
29.0625
29.0625
29.0625
29.0
29.0625
29.0625
29.0625
29.0
29.0
29.0
29.0
29.0
28.9375
28.9375
29.0
29.0
29.0
29.0
29.0
29.0625
29.0
29.0
29.0
29.0
29.0
29.0
29.0
29.0
29.0
29.0
29.0
29.0
29.0
29.0
29.0
29.0
29.0
29.0
29.0
29.0
29.0
29.0
28.9375
28.9375
29.0
29.0
29.0
29.0
29.0
29.0
28.9375
28.9375
28.9375
29.0
29.0
29.0
28.9375
28.9375
28.9375
29.0
29.0
29.0
28.9375
28.9375
28.9375
28.9375
29.0
29.0
28.9375
28.9375
28.9375
28.9375
28.9375
28.9375
28.9375
28.9375
29.0
28.9375
28.9375
28.9375
28.9375
28.9375
28.9375
28.9375
28.9375
28.9375
28.9375
28.9375
29.0
29.0
28.9375
28.9375
28.9375
28.9375
28.875
28.875
28.9375
28.9375
28.9375
28.9375
28.9375
28.9375
28.9375
28.9375
28.875
28.875
28.9375
28.9375
28.875
28.875
28.9375
28.9375
28.9375
28.9375
28.9375
28.9375
28.9375
28.875
28.875
28.875
28.875
28.875
28.9375
28.875
28.875
28.9375
28.875
28.875
28.875
28.875
28.875
28.875
28.875
28.875
28.875
28.875
28.875
28.875
28.9375
28.9375
28.9375
28.875
28.875
28.875
28.9375
28.875
28.875
28.875
28.875
28.875
28.875
28.8125
28.8125
28.875
28.9375
28.875
28.875
28.875
28.875
28.875
28.875
28.875
28.875
28.875
28.875
28.875
28.875
28.8125
28.8125
28.875
28.875
28.875
28.875
28.875
28.8125
28.8125
28.875
28.875
28.875
28.875
28.875
28.875
28.875
28.875
28.8125
28.8125
28.8125
28.8125
28.8125
28.875
28.875
28.875
28.875
28.875
28.875
28.875
28.8125
28.875
28.875
28.875
28.875
28.875
28.875
28.875
28.875
28.875
28.875
28.9375
28.875
28.875
28.875
28.8125
28.8125
28.875
28.875
28.875
28.875
28.875
28.875
28.875
28.875
28.875
28.8125
28.8125
28.8125
28.8125
28.8125
28.875
28.875
28.875
28.875
28.875
28.8125
28.8125
28.875
28.875
28.8125
28.8125
28.8125
28.8125
28.8125
28.8125
28.875
28.875
28.875
28.875
28.875
28.8125
28.8125
28.875
28.875
28.8125
28.8125
28.8125
28.8125
28.8125
28.8125
28.8125
28.8125
28.875
28.8125
28.8125
28.75
28.8125
28.8125
28.8125
28.8125
28.8125
28.75
28.75
28.75
28.8125
28.8125
28.8125
28.8125
28.8125
28.8125
28.8125
28.8125
28.8125
28.8125
28.8125
28.8125
28.8125
28.8125
28.8125
28.8125
28.8125
28.8125
28.8125
28.8125
28.8125
28.8125
28.8125
28.8125
28.8125
28.8125
28.8125
28.8125
28.8125
28.8125
28.8125
28.75
28.75
28.8125
28.8125
28.8125
28.8125
28.8125
28.8125
28.8125
28.8125
28.75
28.8125
28.8125
28.8125
28.8125
28.8125
28.8125
28.75
28.75
28.75
28.75
28.75
28.8125
28.8125
28.75
28.75
28.75
28.75
28.75
28.75
28.75
28.75
28.75
28.75
28.75
28.75
28.75
28.75
28.75
28.75
28.8125
28.75
28.75
28.75
28.75
28.75
28.75
28.75
28.75
28.75
28.75
28.75
28.75
28.75
28.75
28.75
28.75
28.75
28.75
28.75
28.75
28.75
28.75
28.75
28.8125
28.8125
28.75
28.75
28.75
28.75
28.75
28.75
28.6875
28.6875
28.75
28.8125
28.75
28.75
28.75
28.75
28.75
28.75
28.75
28.75
28.75
28.75
28.75
28.75
28.75
28.75
28.75
28.75
28.75
28.6875
28.75
28.75
28.75
28.75
28.75
28.75
28.75
28.75
28.75
28.75
28.75
28.6875
28.75
28.75
28.75
28.75
28.6875
28.75
28.75
28.75
28.75
28.8125
28.75
28.6875
28.75
28.8125
28.8125
28.8125
28.75
28.75
28.75
28.75
28.75
28.6875
28.75
28.6875
28.6875
28.75
28.75
28.75
28.75
28.75
28.75
28.75
28.75
28.75
28.75
28.75
28.75
28.6875
28.6875
28.75
28.6875
28.6875
28.75
28.75
28.75
28.75
28.75
28.75
28.75
28.6875
28.6875
28.6875
28.75
28.75
28.6875
28.6875
28.6875
28.75
28.6875
28.6875
28.6875
28.6875
28.6875
28.75
28.6875
28.6875
28.6875
28.75
28.75
28.6875
28.6875
28.75
28.6875
28.6875
28.6875
28.6875
28.75
28.75
28.6875
28.6875
28.6875
28.6875
28.6875
28.6875
28.6875
28.6875
28.6875
28.6875
28.6875
28.6875
28.6875
28.6875
28.6875
28.6875
28.6875
28.6875
28.6875
28.6875
28.6875
28.6875
28.6875
28.6875
28.6875
28.6875
28.75
28.6875
28.6875
28.6875
28.75
28.6875
28.6875
28.6875
28.6875
28.6875
28.6875
28.6875
28.6875
28.6875
28.6875
28.6875
28.6875
28.6875
28.6875
28.6875
28.6875
28.6875
28.6875
28.6875
28.6875
28.6875
28.6875
28.6875
28.6875
28.6875
28.6875
28.6875
28.625
28.625
28.625
28.625
28.6875
28.6875
28.6875
28.625
28.625
28.625
28.625
28.625
28.625
28.625
28.6875
28.6875
28.6875
28.625
28.625
28.625
28.625
28.625
28.625
28.625
28.625
28.625
28.625
28.625
28.625
28.6875
28.6875
28.625
28.625
28.6875
28.6875
28.6875
28.6875
28.625
28.5625
28.5625
28.625
28.625
28.625
28.625
28.625
28.625
28.625
28.625
28.625
28.625
28.625
28.625
28.625
28.6875
28.625
28.625
28.5625
28.5625
28.5625
28.5625
28.5625
28.625
28.6875
28.625
28.625
28.625
28.625
28.625
28.625
28.625
28.625
28.5625
28.625
28.6875
28.625
28.625
28.6875
28.625
28.625
28.625
28.625
28.625
28.625
28.625
28.625
28.625
28.625
28.625
28.625
28.625
28.625
28.625
28.625
28.625
28.625
28.6875
28.625
28.625
28.625
28.625
28.625
28.625
28.625
28.625
28.625
28.625
28.625
28.625
28.625
28.5625
28.625
28.625
28.5625
28.625
28.625
28.5625
28.5
28.5
28.5625
28.625
28.6875
28.625
28.625
28.625
28.625
28.625
28.6875
28.6875
28.6875
28.6875
28.625
28.625
28.5625
28.5625
28.5
28.5
28.5625
28.5625
28.5625
28.5625
28.5625
28.625
28.625
28.625
28.5625
28.5625
28.5625
28.6875
28.6875
28.625
28.5
28.5
28.75
28.8125
28.3125
28.1875
28.5625
28.6875
28.8125
28.75
28.625
28.4375
28.3125
28.4375
28.625
28.6875
28.5625
28.4375
28.5
28.6875
28.8125
28.75
28.5625
28.4375
28.4375
28.5
28.5
28.4375
28.375
28.4375
28.5
28.5625
28.625
28.625
28.625
28.6875
28.6875
28.6875
28.625
28.5625
28.625
28.6875
28.625
28.625
28.625
28.625
28.625
28.6875
28.625
28.625
28.5625
28.625
28.6875
28.625
28.5625
28.5
28.5625
28.5625
28.5625
28.5625
28.5625
28.5625
28.625
28.625
28.5625
28.625
28.625
28.5625
28.5625
28.5625
28.5625
28.5625
28.5625
28.5625
28.5
28.5625
28.625
28.6875
28.625
28.5625
28.625
28.625
28.625
28.625
28.5625
28.5625
28.625
28.6875
28.625
28.6875
28.625
28.625
28.625
28.625
28.5625
28.5625
28.5
28.5
28.5
28.5625
28.5
28.5625
28.5625
28.5625
28.5625
28.5625
28.625
28.5
28.4375
28.4375
28.4375
28.5
28.5
28.5
28.5
28.5
28.5625
28.5625
28.5625
28.5625
28.5
28.5
28.5
28.5625
28.5625
28.5625
28.5625
28.5625
28.625
28.6875
28.6875
28.6875
28.6875
28.625
28.625
28.625
28.625
28.625
28.625
28.6875
28.625
28.625
28.625
28.625
28.625
28.625
28.6875
28.6875
28.6875
28.5625
28.5625
28.5625
28.5625
28.625
28.5625
28.5625
28.5
28.5
28.5625
28.5625
28.5625
28.5625
28.5625
28.5625
28.5
28.4375
28.4375
28.4375
28.4375
28.4375
28.4375
28.4375
28.5
28.5
28.5625
28.5625
28.5625
28.5625
28.5625
28.5625
28.5625
28.5
28.5
28.5
28.5
28.5625
28.5625
28.625
28.5625
28.5625
28.5625
28.5625
28.5625
28.5625
28.5
28.5
28.5
28.5625
28.625
28.625
28.625
28.625
28.6875
28.6875
28.625
28.625
28.625
28.625
28.625
28.5625
28.5
28.5625
28.625
28.625
28.625
28.625
28.625
28.625
28.5625
28.5625
28.5
28.5
28.5625
28.5
28.5
28.5
28.5625
28.5625
28.5
28.5625
28.625
28.5625
28.5
28.5
28.5
28.5
28.5
28.5
28.5625
28.5625
28.5
28.5625
28.5625
28.5625
28.5625
28.5625
28.5625
28.5625
28.5625
28.5
28.5
28.5
28.5625
28.625
28.625
28.5625
28.5625
28.5625
28.5625
28.5625
28.5625
28.5625
28.5625
28.5625
28.5625
28.5625
28.5625
28.5625
28.5625
28.5625
28.5625
28.5625
28.5625
28.5625
28.5625
28.5625
28.5625
28.5
28.5
28.5
28.5625
28.625
28.5625
28.5
28.5
28.5625
28.5625
28.625
28.5625
28.5625
28.5625
28.75
28.875
29.0
29.0625
29.1875
29.25
29.3125
29.4375
29.5
29.5625
29.6875
29.6875
29.75
29.8125
29.875
29.875
29.875
29.9375
30.0
30.0625
30.0625
30.1875
30.1875
30.1875
30.1875
30.1875
30.1875
30.125
30.125
30.125
30.125
30.125
30.125
30.125
30.1875
30.1875
30.1875
30.125
30.125
30.0625
30.0625
30.0625
30.0
30.0
30.0
30.0
30.0
30.0
30.0
30.0625
30.0
29.9375
29.9375
29.9375
29.875
29.875
29.875
29.875
29.875
29.875
29.875
29.875
29.875
29.875
29.875
29.875
29.75
29.75
29.6875
29.6875
29.6875
29.75
29.75
29.75
29.75
29.75
29.75
29.6875
29.6875
29.6875
29.625
29.6875
29.6875
29.625
29.625
29.625
29.625
29.625
29.6875
29.6875
29.625
29.5625
29.5625
29.5
29.5
29.5
29.5
29.5
29.5
29.5625
29.5625
29.5
29.5
29.5
29.5
29.5
29.5
29.5
29.5
29.5
29.4375
29.4375
29.5
29.5
29.5
29.5
29.5
29.4375
29.4375
29.4375
29.4375
29.375
29.375
29.4375
29.4375
29.4375
29.5
29.4375
29.4375
29.4375
29.4375
29.375
29.375
29.375
29.4375
29.375
29.3125
29.3125
29.375
29.375
29.375
29.375
29.375
29.375
29.375
29.375
29.3125
29.3125
29.375
29.375
29.3125
29.3125
29.3125
29.375
29.3125
29.25
29.3125
29.375
29.3125
29.3125
29.375
29.3125
29.3125
29.3125
29.3125
29.375
29.3125
29.3125
29.3125
29.3125
29.3125
29.3125
29.25
29.25
29.25
29.25
29.3125
29.375
29.375
29.375
29.25
29.1875
29.25
29.375
29.375
29.3125
29.25
29.1875
29.1875
29.25
29.3125
29.3125
29.25
29.25
29.25
29.25
29.25
29.3125
29.3125
29.25
29.25
29.25
29.25
29.25
29.25
29.1875
29.1875
29.1875
29.125
29.125
29.125
29.1875
29.25
29.3125
29.3125
29.1875
29.125
29.125
29.1875
29.25
29.25
29.1875
29.125
29.125
29.25
29.375
29.3125
29.25
29.1875
29.1875
29.1875
29.25
29.1875
29.125
29.125
29.125
29.125
29.125
29.125
29.125
29.125
29.1875
29.1875
29.125
29.125
29.125
29.125
29.0625
29.0625
29.0625
29.125
29.1875
29.1875
29.1875
29.125
29.125
29.125
29.125
29.125
29.125
29.125
29.1875
29.125
29.125
29.125
29.1875
29.1875
29.125
29.125
29.0625
29.0625
29.0625
29.0
29.0
29.0
29.0625
29.0625
29.0625
29.0625
29.125
29.125
29.1875
29.125
29.125
29.0625
29.125
29.125
29.125
29.0625
29.0625
29.0625
29.125
29.125
29.125
29.125
29.125
29.125
29.0625
29.125
29.125
29.125
29.125
29.0625
29.0625
29.0625
29.0
29.0625
29.0625
29.0
29.0
29.0
28.9375
28.9375
28.9375
28.9375
29.0
29.0
29.0
29.0
29.0625
29.0625
29.0
29.0
29.0
29.0
29.0
29.0625
29.0625
29.0625
29.0
29.0
29.0625
29.0625
29.0
29.0
29.0
29.0625
29.0
29.0
29.0
28.9375
28.9375
29.0
29.0
29.0
29.0625
29.0625
29.0625
29.0625
29.0625
29.0625
29.0625
29.0625
29.0625
29.0625
29.0625
29.0
29.0
29.0
29.0
29.0
29.0625
29.0625
29.0625
29.0
29.0
28.9375
28.9375
29.0
28.9375
28.9375
29.0
29.0
29.0
29.0
29.0
29.0
29.0
28.9375
28.9375
28.9375
28.875
28.9375
29.0
28.9375
28.9375
28.9375
28.9375
29.0
29.0
29.0
29.0
29.0
29.0
29.0
29.0
29.0
29.0625
29.0625
28.9375
28.875
28.875
28.9375
29.0
29.0625
29.125
29.0
28.9375
28.9375
28.9375
28.9375
28.9375
28.9375
28.875
28.9375
28.9375
28.9375
28.9375
29.0
29.0
28.9375
28.9375
28.9375
28.9375
28.875
28.875
28.9375
28.9375
28.875
28.9375
29.125
29.125
29.0
28.875
28.875
28.9375
29.0625
29.0
28.9375
28.8125
28.8125
28.9375
29.0
28.9375
28.8125
28.75
28.8125
28.8125
28.8125
28.8125
28.875
29.3125
29.4375
29.125
28.6875
28.75
28.6875
29.0625
28.875
28.0625
27.5
27.9375
29.125
29.8125
29.75
29.4375
29.5
29.5
29.0625
28.5
27.9375
27.75
27.6875
27.75
28.125
28.75
28.9375
29.125
29.5625
30.1875
30.375
29.6875
28.6875
27.875
27.6875
27.75
27.75
27.75
28.125
28.75
29.375
29.9375
30.375
30.4375
30.0
29.0625
28.125
27.75
27.9375
28.4375
28.75
28.6875
28.5625
28.875
29.25
29.3125
29.1875
29.125
29.1875
29.1875
29.0
28.75
28.625
28.4375
28.3125
28.25
28.25
28.4375
28.625
28.8125
28.9375
29.0
28.9375
28.9375
28.9375
28.9375
28.875
28.75
28.625
28.5625
28.5
28.5
28.625
28.75
28.875
29.0
29.0625
28.9375
28.8125
28.75
28.8125
28.8125
28.8125
29.0
29.0
28.875
28.8125
28.8125
28.875
28.8125
28.8125
28.875
28.875
28.8125
28.75
28.625
28.5625
28.6875
28.8125
28.875
28.9375
29.0625
29.125
29.0625
28.9375
28.75
28.5
28.4375
28.4375
28.4375
28.5625
28.8125
29.0
29.0625
28.9375
28.9375
28.9375
28.9375
28.8125
28.625
28.4375
28.4375
28.375
28.375
28.4375
28.4375
28.625
28.8125
28.875
29.0
28.9375
28.8125
28.5625
28.4375
28.375
28.375
28.375
28.4375
28.5625
28.75
28.875
29.0
29.0
29.0
28.9375
28.8125
28.75
28.625
28.625
28.5625
28.5625
28.5625
28.625
28.625
28.6875
28.875
29.125
29.25
29.3125
29.1875
29.0625
29.0
28.9375
28.8125
28.75
28.75
28.8125
28.875
28.8125
28.75
28.75
28.75
28.8125
28.8125
28.9375
28.9375
28.9375
28.8125
28.6875
28.5625
28.5
28.4375
28.4375
28.5
28.625
28.6875
28.75
28.8125
28.75
28.75
28.6875
28.6875
28.5625
28.5625
28.5625
28.625
28.6875
28.6875
28.625
28.5
28.4375
28.4375
28.375
28.375
28.4375
28.5
28.5625
28.625
28.6875
28.75
28.75
28.8125
28.8125
28.8125
28.8125
28.75
28.8125
28.8125
28.8125
28.8125
28.8125
28.8125
28.875
28.9375
28.9375
28.8125
28.8125
28.75
28.6875
28.6875
28.75
28.75
28.75
28.75
28.6875
28.6875
28.6875
28.6875
28.6875
28.6875
28.6875
28.625
28.625
28.625
28.6875
28.75
28.75
28.75
28.75
28.8125
28.8125
28.75
28.6875
28.6875
28.6875
28.75
28.8125
28.875
28.8125
28.6875
28.5625
28.625
28.6875
28.6875
28.625
28.625
28.6875
28.6875
28.6875
28.625
28.5625
28.5625
28.625
28.75
28.75
28.75
28.6875
28.6875
28.6875
28.6875
28.6875
28.625
28.5
28.4375
28.375
28.4375
28.5
28.5625
28.625
28.625
28.6875
28.75
28.75
28.8125
28.75
28.75
28.75
28.6875
28.5625
28.5
28.5
28.4375
28.5
28.5
28.5
28.6875
28.8125
28.875
28.875
29.0
29.0625
28.9375
28.6875
28.625
28.625
28.6875
28.75
28.6875
28.625
28.5625
28.5625
28.625
28.6875
28.6875
28.625
28.625
28.625
28.5625
28.4375
28.375
28.375
28.4375
28.5625
28.625
28.6875
28.75
28.8125
28.75
28.6875
28.625
28.5625
28.6875
28.75
28.8125
28.875
28.875
28.875
28.875
28.8125
28.8125
28.6875
28.5625
28.375
28.3125
28.3125
28.375
28.375
28.3125
28.3125
28.4375
28.5625
28.75
28.875
28.8125
28.75
28.6875
28.625
28.6875
28.75
28.75
28.625
28.625
28.5625
28.5625
28.625
28.6875
28.8125
28.875
28.9375
28.875
28.75
28.6875
28.625
28.5625
28.4375
28.3125
28.1875
28.1875
28.1875
28.25
28.3125
28.4375
28.625
28.8125
28.9375
28.9375
28.9375
28.8125
28.75
28.6875
28.4375
28.0
27.75
28.0625
28.6875
29.25
29.3125
29.25
28.9375
28.75
28.25
27.875
27.625
27.875
28.4375
29.0
28.9375
28.75
28.6875
28.75
28.6875
28.5625
28.375
28.375
28.4375
28.625
28.75
28.75
28.625
28.4375
28.375
28.3125
28.25
28.25
28.4375
28.5
28.5625
28.5625
28.5625
28.6875
28.875
29.0
29.0
28.875
28.6875
28.5625
28.5
28.5
28.5625
28.625
28.75
28.8125
28.8125
28.75
28.6875
28.625
28.5625
28.5
28.4375
28.375
28.3125
28.1875
28.0625
28.0625
28.1875
28.375
28.5625
29.0
29.3125
29.3125
29.0625
28.875
28.8125
28.625
27.875
27.25
27.375
27.9375
28.3125
28.375
28.75
29.125
29.5625
29.625
29.5625
29.125
28.375
27.5625
27.25
27.4375
28.0625
28.5625
29.125
29.875
30.0625
28.25
26.625
26.9375
27.1875
27.4375
27.875
28.5625
28.9375
29.0625
29.0625
29.3125
29.5
29.0625
28.4375
27.6875
27.4375
27.0625
27.0
27.125
27.5
27.9375
28.5625
29.25
29.9375
30.5625
30.8125
30.3125
29.3125
28.125
27.8125
27.9375
28.5
28.75
28.5
28.25
28.25
28.8125
29.4375
29.75
30.0625
30.4375
30.3125
29.5
28.875
28.8125
28.8125
28.3125
27.9375
28.125
28.625
29.0
29.25
29.625
30.0
30.25
30.5625
31.0625
31.4375
31.4375
31.0
30.375
29.8125
29.625
29.4375
29.25
29.0625
29.0625
29.3125
29.5625
29.8125
30.0
30.0
29.9375
29.875
29.9375
30.125
30.5625
30.75
30.875
30.8125
30.625
29.875
29.0
28.125
28.0625
28.375
29.0
29.625
30.375
30.8125
30.875
30.3125
29.6875
29.1875
28.9375
29.1875
30.4375
31.125
30.0625
28.6875
28.375
29.1875
29.6875
29.375
28.6875
28.5625
28.9375
29.375
29.5625
29.625
29.625
29.625
29.625
29.5625
29.4375
29.1875
28.9375
28.8125
28.9375
29.375
29.875
30.5
30.9375
31.0
30.5625
30.25
30.125
29.75
29.1875
28.6875
28.375
28.5
28.75
29.0625
29.4375
29.8125
30.0
30.125
30.1875
30.125
30.0625
29.875
29.6875
29.5625
29.5625
29.4375
29.3125
29.25
29.25
29.25
29.3125
29.4375
29.4375
29.5
29.5625
29.5625
29.875
30.4375
30.25
29.0
28.0625
28.0
28.5
28.75
28.625
28.5
28.375
28.25
28.125
28.125
28.3125
28.5
28.6875
28.875
29.125
29.4375
29.5625
29.5625
29.375
29.25
29.25
29.125
29.0
28.9375
28.8125
28.8125
28.8125
28.875
28.9375
29.125
29.25
29.375
29.5
29.5625
29.5625
29.625
29.75
29.75
29.75
29.625
29.4375
29.125
28.875
28.8125
28.75
28.8125
29.0
29.5625
30.3125
30.1875
29.5
29.0
29.1875
29.625
29.625
29.125
28.75
28.8125
29.125
29.25
29.0625
28.8125
28.6875
28.8125
29.0
29.1875
29.25
29.1875
29.0625
28.875
28.6875
28.625
28.625
28.6875
28.8125
28.875
28.9375
28.875
28.875
28.8125
28.75
28.75
28.75
28.8125
28.9375
29.0625
29.1875
29.25
29.1875
29.1875
29.125
29.125
29.0625
29.0
28.875
28.75
28.75
28.6875
28.75
28.8125
28.9375
29.0625
29.1875
29.25
29.25
29.125
29.0
28.9375
28.9375
29.0
29.0625
29.1875
29.25
29.375
29.375
29.3125
29.25
29.1875
29.125
29.3125
29.5
29.3125
29.0
28.875
28.875
28.75
28.625
28.5625
28.8125
29.0
29.0625
29.125
29.3125
29.5
29.5625
29.5625
29.6875
30.0625
30.4375
30.4375
30.25
30.125
29.9375
29.8125
29.6875
29.5
29.5
29.625
29.75
29.875
30.0
30.0625
30.0625
30.0625
30.0625
30.0
30.0
30.0
29.9375
29.875
30.0
29.9375
29.625
29.4375
29.4375
29.5625
29.6875
29.8125
29.75
29.75
29.8125
29.9375
30.0
30.0
29.9375
29.8125
29.75
29.6875
29.6875
29.8125
29.9375
29.9375
29.875
29.875
29.8125
29.75
29.6875
29.625
29.5
29.4375
29.4375
29.4375
29.4375
29.4375
29.375
29.3125
29.375
29.375
29.4375
29.5625
29.6875
29.625
29.5625
29.5625
29.6875
29.75
29.625
29.5625
29.5625
29.5625
29.5
29.375
29.3125
29.25
29.25
29.25
29.375
29.6875
29.75
29.4375
29.1875
29.1875
29.25
29.375
29.375
29.25
29.25
29.25
29.25
29.3125
29.25
29.1875
29.1875
29.1875
29.25
29.25
29.3125
29.3125
29.3125
29.3125
29.25
29.25
29.25
29.1875
29.1875
29.1875
29.125
29.125
29.0625
29.125
29.25
29.25
29.1875
29.125
29.1875
29.25
29.3125
29.375
29.4375
29.4375
29.4375
29.4375
29.375
29.375
29.375
29.375
29.3125
29.3125
29.375
29.3125
29.25
29.1875
29.125
29.0625
29.0625
29.0
29.0
29.0
29.0
29.0
29.0
29.0
29.0
29.0
29.125
29.3125
29.3125
29.25
29.25
29.3125
29.3125
29.375
29.3125
29.3125
29.25
29.125
29.0625
29.0
28.9375
28.9375
29.125
29.4375
29.4375
29.0625
28.875
28.875
29.0625
29.0625
28.9375
28.8125
28.875
28.9375
29.125
29.1875
29.25
29.125
29.0625
29.0625
29.125
29.125
29.125
29.1875
29.25
29.1875
29.125
29.125
29.0625
29.0625
28.9375
28.875
28.875
28.875
28.9375
28.9375
28.9375
28.9375
28.9375
28.9375
28.9375
28.9375
29.0
29.0625
29.125
29.1875
29.1875
29.1875
29.1875
29.125
29.125
29.125
29.125
29.0625
29.125
29.125
29.0625
29.0625
29.1875
29.3125
29.1875
29.0
28.875
28.9375
29.0625
28.9375
28.8125
28.8125
28.875
28.875
28.9375
28.9375
28.875
28.9375
29.0
29.0
29.0
29.0
29.0
29.0
29.0
29.0
29.0
29.0
29.0
28.9375
28.875
28.875
28.875
28.875
28.8125
28.8125
28.8125
28.8125
28.8125
28.75
28.8125
28.8125
28.875
28.875
28.875
28.9375
28.9375
29.0
29.0
29.0625
29.125
29.0625
29.0625
29.0
29.0
29.0
29.0
29.0
29.0625
29.0625
29.0
28.9375
28.875
28.8125
28.8125
28.875
28.875
28.875
28.875
28.8125
28.8125
28.8125
28.8125
28.8125
28.8125
28.8125
28.875
28.8125
28.875
28.875
28.8125
28.8125
28.875
28.875
28.9375
28.9375
28.9375
28.875
28.9375
28.9375
28.875
28.875
28.875
28.875
28.9375
28.875
28.8125
28.875
28.8125
28.75
28.6875
28.75
28.75
28.8125
28.8125
28.8125
28.8125
28.875
28.9375
28.9375
28.9375
28.9375
29.0
28.9375
28.875
28.8125
28.8125
28.875
28.875
28.9375
28.9375
28.9375
28.9375
28.875
28.8125
28.8125
28.8125
28.8125
28.8125
28.8125
28.8125
28.75
28.75
28.75
28.6875
28.6875
28.75
28.8125
28.8125
28.8125
28.8125
28.8125
28.875
28.875
28.9375
28.9375
28.875
28.875
28.8125
28.8125
28.8125
28.8125
28.8125
28.8125
28.8125
28.8125
28.8125
28.8125
28.75
28.75
28.75
28.75
28.8125
28.8125
28.8125
28.8125
28.8125
28.8125
28.875
28.875
28.875
28.875
28.875
28.875
28.8125
28.8125
28.8125
28.8125
28.8125
28.8125
28.75
28.75
28.8125
28.75
28.75
28.6875
28.6875
28.6875
28.6875
28.6875
28.75
28.75
28.75
28.6875
28.6875
28.75
28.75
28.8125
28.875
28.8125
28.75
28.8125
28.75
28.75
28.75
28.75
28.75
28.6875
28.6875
28.75
28.75
28.75
28.8125
28.75
28.75
28.8125
28.75
28.75
28.75
28.75
28.8125
28.75
28.75
28.75
28.75
28.75
28.75
28.75
28.75
28.6875
28.6875
28.6875
28.6875
28.8125
28.8125
28.75
28.75
28.75
28.75
28.75
28.75
28.75
28.75
28.75
28.75
28.75
28.6875
28.6875
28.6875
28.6875
28.6875
28.6875
28.6875
28.6875
28.6875
28.75
28.75
28.75
28.75
28.6875
28.6875
28.75
28.75
28.75
28.75
28.75
28.75
28.75
28.75
28.75
28.75
28.8125
28.75
28.75
28.75
28.75
28.75
28.75
28.6875
28.6875
28.6875
28.6875
28.6875
28.6875
28.6875
28.6875
28.75
28.75
28.75
28.75
28.6875
28.75
28.75
28.75
28.75
28.75
28.75
28.75
28.75
28.75
28.75
28.6875
28.625
28.6875
28.6875
28.6875
28.625
28.625
28.5625
28.5625
28.625
28.625
28.6875
28.6875
28.6875
28.6875
28.6875
28.6875
28.6875
28.6875
28.6875
28.75
28.8125
28.8125
28.6875
28.6875
28.75
28.8125
28.8125
28.75
28.6875
28.6875
28.6875
28.6875
28.625
28.625
28.625
28.625
28.625
28.5625
28.5625
28.5625
28.5625
28.5625
28.5625
28.625
28.625
28.625
28.6875
28.6875
28.6875
28.6875
28.75
28.75
28.75
28.8125
28.75
28.75
28.75
28.6875
28.6875
28.6875
28.6875
28.625
28.625
28.625
28.625
28.625
28.625
28.5625
28.5625
28.5625
28.5625
28.625
28.625
28.625
28.625
28.6875
28.6875
28.6875
28.6875
28.6875
28.6875
28.75
28.75
28.6875
28.6875
28.625
28.625
28.625
28.6875
28.6875
28.6875
28.6875
28.625
28.625
28.5625
28.5625
28.5625
28.5625
28.625
28.625
28.625
28.625
28.6875
28.6875
28.6875
28.6875
28.6875
28.6875
28.6875
28.625
28.6875
28.6875
28.6875
28.6875
28.625
28.625
28.625
28.5625
28.5625
28.5625
28.5625
28.625
28.625
28.625
28.625
28.625
28.625
28.625
28.625
28.625
28.625
28.625
28.625
28.6875
28.6875
28.6875
28.6875
28.6875
28.6875
28.625
28.625
28.5625
28.5625
28.5625
28.5625
28.5625
28.5625
28.5625
28.5625
28.5625
28.5625
28.5625
28.625
28.625
28.625
28.625
28.625
28.625
28.625
28.625
28.5625
28.625
28.5625
28.5625
28.5625
28.625
28.5625
28.5625
28.5625
28.6875
28.6875
28.625
28.625
28.625
28.625
28.625
28.625
28.625
28.625
28.625
28.5625
28.5625
28.5625
28.5625
28.5625
28.5625
28.5625
28.625
28.625
28.625
28.625
28.625
28.625
28.625
28.625
28.625
28.5625
28.5625
28.5625
28.5625
28.5
28.5
28.5625
28.5625
28.5625
28.625
28.625
28.625
28.625
28.6875
28.6875
28.6875
28.6875
28.625
28.5625
28.5625
28.625
28.625
28.5625
28.5625
28.5
28.5625
28.5625
28.5625
28.5625
28.5625
28.5625
28.5
28.5
28.5
28.5
28.5
28.5
28.5
28.5625
28.5625
28.5625
28.5625
28.625
28.625
28.625
28.625
28.625
28.625
28.625
28.625
28.625
28.625
28.625
28.625
28.625
28.5625
28.5625
28.5625
28.5
28.5
28.5
28.5
28.5
28.5
28.5
28.5
28.5
28.5625
28.5625
28.625
28.625
28.625
28.625
28.625
28.5625
28.5625
28.5625
28.5625
28.5625
28.5625
28.5625
28.5625
28.5625
28.5625
28.5625
28.5
28.5
28.5625
28.5625
28.5625
28.5625
28.5625
28.5625
28.5625
28.5625
28.5625
28.5625
28.5625
28.5625
28.5625
28.5625
28.5625
28.5625
28.5
28.5
28.5625
28.5625
28.5625
28.5625
28.5625
28.5625
28.5625
28.5625
28.5625
28.5625
28.5625
28.5
28.5
28.5
28.5
28.4375
28.4375
28.4375
28.5
28.5625
28.5625
28.5625
28.5625
28.5625
28.5625
28.5625
28.5
28.5
28.5
28.5
28.5
28.5
28.5
28.5
28.5
28.5
28.5
28.5
28.5
28.5625
28.5625
28.5
28.5
28.5625
28.5625
28.5
28.5
28.5
28.4375
28.4375
28.4375
28.5
28.5
28.5
28.4375
28.4375
28.4375
28.4375
28.4375
28.375
28.375
28.375
28.375
28.375
28.375
28.375
28.4375
28.4375
28.5
28.5625
28.5625
28.5625
28.625
28.625
28.625
28.625
28.625
28.625
28.5625
28.5625
28.5625
28.5
28.5
28.5
28.4375
28.4375
28.375
28.375
28.3125
28.3125
28.375
28.375
28.3125
28.3125
28.375
28.375
28.375
28.4375
28.5
28.5
28.5
28.5625
28.5625
28.5
28.5
28.5625
28.5625
28.5625
28.5625
28.5625
28.5625
28.5625
28.5
28.5
28.4375
28.4375
28.375
28.375
28.375
28.375
28.4375
28.375
28.375
28.375
28.4375
28.4375
28.4375
28.4375
28.5
28.5625
28.5625
28.5625
28.5625
28.5625
28.5
28.5
28.5
28.5
28.5
28.4375
28.4375
28.4375
28.4375
28.4375
28.4375
28.375
28.375
28.375
28.375
28.375
28.375
28.4375
28.4375
28.5
28.5
28.5
28.5
28.5
28.5
28.5625
28.5625
28.5
28.5625
28.5625
28.625
28.625
28.5625
28.5625
28.5
28.5
28.5
28.5
28.4375
28.4375
28.4375
28.375
28.375
28.375
28.375
28.375
28.375
28.375
28.375
28.375
28.4375
28.4375
28.5
28.5625
28.5625
28.5625
28.5
28.5
28.5
28.5
28.5
28.5
28.5
28.5
28.5
28.4375
28.4375
28.4375
28.4375
28.4375
28.375
28.375
28.4375
28.4375
28.4375
28.4375
28.4375
28.4375
28.4375
28.4375
28.4375
28.4375
28.4375
28.4375
28.4375
28.4375
28.4375
28.5
28.5
28.5
28.5
28.4375
28.4375
28.4375
28.5
28.5
28.4375
28.4375
28.4375
28.4375
28.4375
28.375
28.375
28.375
28.375
28.375
28.375
28.375
28.4375
28.375
28.375
28.375
28.375
28.375
28.375
28.375
28.375
28.375
28.4375
28.4375
28.4375
28.5
28.4375
28.4375
28.5625
28.5625
28.5625
28.5625
28.5
28.5
28.5
28.4375
28.4375
28.4375
28.4375
28.375
28.375
28.375
28.375
28.3125
28.3125
28.3125
28.3125
28.375
28.375
28.375
28.3125
28.375
28.4375
28.4375
28.5
28.5
28.4375
28.5
28.5
28.5
28.5
28.5
28.4375
28.4375
28.4375
28.4375
28.4375
28.375
28.375
28.375
28.375
28.375
28.375
28.375
28.375
28.375
28.4375
28.4375
28.4375
28.4375
28.4375
28.4375
28.4375
28.4375
28.5
28.5
28.5
28.4375
28.5
28.5
28.4375
28.375
28.375
28.375
28.375
28.4375
28.4375
28.375
28.375
28.3125
28.375
28.375
28.375
28.375
28.375
28.375
28.4375
28.4375
28.4375
28.4375
28.5
28.4375
28.4375
28.375
28.375
28.4375
28.5
28.4375
28.4375
28.4375
28.4375
28.4375
28.4375
28.375
28.375
28.4375
28.4375
28.4375
28.4375
28.4375
28.4375
28.4375
28.4375
28.5
28.5
28.4375
28.4375
28.4375
28.4375
28.4375
28.4375
28.4375
28.4375
28.4375
28.4375
28.4375
28.4375
28.4375
28.375
28.375
28.375
28.375
28.375
28.375
28.375
28.375
28.375
28.375
28.375
28.375
28.4375
28.4375
28.4375
28.5
28.5
28.4375
28.4375
28.4375
28.4375
28.4375
28.4375
28.5
28.5
28.4375
28.4375
28.375
28.375
28.375
28.3125
28.3125
28.3125
28.3125
28.375
28.375
28.4375
28.375
28.375
28.4375
28.4375
28.4375
28.4375
28.5
28.4375
28.4375
28.4375
28.4375
28.375
28.375
28.3125
28.3125
28.3125
28.375
28.375
28.375
28.375
28.4375
28.4375
28.375
28.375
28.375
28.375
28.375
28.375
28.4375
28.5
28.5
28.5
28.4375
28.375
28.375
28.4375
28.375
28.4375
28.4375
28.4375
28.4375
28.375
28.5
28.625
28.6875
28.75
28.875
29.0
29.125
29.25
29.375
29.375
29.5
29.625
29.625
29.6875
29.75
29.8125
29.875
29.875
29.875
29.9375
30.0
29.9375
29.9375
29.9375
29.9375
29.9375
29.9375
29.9375
30.0
30.0
30.0
30.0
30.0
30.0625
30.0625
30.0625
30.0
30.0
30.0
30.0
30.0
30.0
29.9375
29.875
29.8125
29.8125
29.8125
29.75
29.75
29.75
29.6875
29.6875
29.6875
29.6875
29.75
29.75
29.6875
29.6875
29.75
29.75
29.8125
29.75
29.75
29.75
29.75
29.8125
29.75
29.6875
29.6875
29.625
29.625
29.625
29.625
29.625
29.5625
29.5
29.5
29.4375
29.4375
29.4375
29.4375
29.5
29.5
29.5
29.5625
29.5625
29.5625
29.5625
29.5625
29.5625
29.5625
29.5625
29.5
29.5625
29.5
29.5
29.4375
29.4375
29.375
29.375
29.3125
29.3125
29.3125
29.25
29.25
29.25
29.25
29.25
29.25
29.25
29.25
29.25
29.3125
29.375
29.375
29.4375
29.375
29.375
29.375
29.375
29.375
29.3125
29.3125
29.3125
29.3125
29.3125
29.25
29.3125
29.25
29.1875
29.1875
29.1875
29.25
29.1875
29.25
29.25
29.25
29.25
29.25
29.1875
29.1875
29.1875
29.1875
29.1875
29.1875
29.25
29.25
29.25
29.25
29.1875
29.25
29.25
29.1875
29.125
29.0625
29.0625
29.125
29.1875
29.1875
29.1875
29.1875
29.125
29.125
29.125
29.125
29.1875
29.1875
29.25
29.25
29.25
29.25
29.25
29.25
29.25
29.1875
29.1875
29.125
29.125
29.125
29.1875
29.125
29.0625
29.0625
29.0625
29.0
29.0
29.0
29.0625
29.0625
29.0625
29.125
29.125
29.0625
29.0625
29.0625
29.125
29.125
29.125
29.125
29.1875
29.1875
29.25
29.1875
29.125
29.125
29.125
29.125
29.0625
29.0625
29.0625
29.0625
29.0625
29.0625
29.0625
29.0625
29.0
29.0
29.0
29.0
29.0
29.0625
29.0625
29.125
29.125
29.125
29.125
29.125
29.0625
29.0625
29.0625
29.0625
29.0625
29.0625
29.0625
29.0625
29.0625
29.0625
29.0625
29.0625
29.0
29.0
29.0
29.0625
29.0625
29.0625
29.0625
29.0
29.0625
29.0
28.9375
28.9375
28.9375
28.9375
29.0
29.0
29.0
29.0
29.0
29.0
29.0
29.0
29.0
29.0
29.0
29.0
29.0
29.0
29.0
29.0
29.0
29.0
29.0
28.9375
28.9375
28.9375
29.0
29.0
28.9375
28.8125
28.8125
28.8125
28.8125
28.8125
28.8125
28.8125
28.875
28.875
28.875
28.9375
29.0
29.0
29.0
29.0625
29.0
28.9375
28.875
28.875
28.8125
28.875
28.875
28.875
28.9375
29.0
29.0
29.0625
29.0
29.0
28.9375
28.9375
28.9375
28.9375
28.9375
28.9375
28.875
28.875
28.875
28.875
28.8125
28.75
28.6875
28.6875
28.6875
28.6875
28.6875
28.6875
28.625
28.625
28.625
28.625
28.75
28.75
29.0
29.1875
29.25
29.0625
29.0
29.125
29.25
29.1875
29.0625
28.875
28.75
28.625
28.4375
28.3125
28.375
28.75
29.375
29.6875
29.1875
28.5
28.4375
28.8125
29.0625
28.875
28.5625
28.5
28.625
28.75
28.6875
28.6875
28.6875
28.75
28.8125
28.9375
29.0625
29.0625
29.0
28.9375
28.9375
29.0
28.9375
28.9375
28.9375
28.875
28.8125
28.75
28.6875
28.625
28.5625
28.5625
28.5625
28.5625
28.625
28.625
28.6875
28.75
28.8125
28.8125
28.875
29.0
29.0625
29.0625
29.0625
29.0
29.0
29.0
28.9375
28.8125
28.8125
28.875
29.0625
29.0
28.8125
28.75
28.6875
28.625
28.5
28.375
28.4375
28.5625
28.6875
28.75
28.75
28.8125
28.8125
28.8125
28.8125
28.8125
28.8125
28.875
28.9375
29.0
29.0
28.9375
28.9375
28.9375
28.9375
28.8125
28.75
28.75
28.8125
28.8125
28.6875
28.625
28.5625
28.5625
28.4375
28.375
28.4375
28.5625
28.6875
28.625
28.6875
28.75
28.75
28.75
28.75
28.8125
28.875
28.9375
28.875
28.75
28.75
28.75
28.8125
28.8125
28.75
28.75
28.8125
28.8125
28.8125
28.875
28.875
28.875
28.875
28.9375
28.9375
29.125
29.5
29.4375
29.0
28.625
28.625
28.8125
28.875
28.5625
28.1875
28.0
28.0
28.125
28.25
28.1875
28.125
28.125
28.1875
28.25
28.375
28.625
28.875
29.1875
29.3125
29.1875
29.0
28.9375
28.9375
28.9375
28.9375
28.9375
28.9375
28.8125
28.75
28.75
28.75
28.75
28.8125
28.875
29.0
29.125
29.3125
29.875
30.0
29.3125
28.5
28.3125
28.625
28.75
28.4375
28.125
28.0
28.1875
28.3125
28.4375
28.5
28.6875
28.9375
29.125
29.25
29.1875
28.9375
28.6875
28.5
28.5
28.5625
28.5625
28.5625
28.6875
28.875
29.0
29.125
29.1875
29.3125
29.375
29.375
29.1875
28.9375
28.75
28.5
28.25
28.0
27.9375
28.125
28.375
28.5625
28.6875
28.6875
28.5625
28.3125
28.125
28.125
28.125
28.1875
28.375
28.625
28.8125
29.0625
29.3125
29.5
29.5
29.375
29.3125
29.1875
28.875
28.4375
28.125
28.0
28.1875
28.625
29.0
29.375
29.6875
29.8125
29.5625
29.1875
29.0625
29.5625
30.0
29.0
27.4375
26.6875
27.125
27.875
27.8125
27.3125
27.3125
28.0
28.6875
29.0
29.0
28.875
28.6875
28.4375
28.4375
28.4375
28.4375
28.4375
28.4375
28.625
29.0625
29.5625
29.625
29.5
29.5625
29.8125
29.875
29.375
28.6875
28.1875
28.1875
28.75
29.375
29.1875
28.5625
28.3125
28.5
28.9375
28.9375
28.5
28.1875
28.125
28.1875
28.4375
28.8125
28.9375
28.9375
28.75
28.625
28.75
28.875
28.875
28.5
28.125
28.125
28.3125
28.5625
28.8125
29.1875
29.5625
29.6875
29.4375
28.875
28.5625
28.375
28.125
27.875
27.9375
28.3125
28.75
28.8125
28.75
28.6875
28.625
28.6875
29.5
29.8125
28.5
26.875
26.5625
27.5625
28.5
28.4375
27.875
27.625
27.8125
28.0625
28.375
28.5
28.625
28.6875
28.6875
28.9375
29.1875
29.3125
29.25
29.0625
28.875
28.8125
28.75
28.6875
28.6875
28.75
28.8125
28.875
28.9375
29.0
29.0
28.875
28.6875
28.5625
28.6875
28.8125
28.6875
28.4375
28.375
28.375
28.5
28.625
28.6875
28.75
28.875
29.0
29.0625
29.0625
29.0
29.0
28.9375
28.875
28.8125
28.8125
28.6875
28.5625
28.375
28.375
28.375
28.4375
28.5
28.875
29.6875
29.875
29.0
28.125
28.0625
28.4375
28.625
28.3125
27.8125
27.5
27.75
28.125
28.3125
28.25
28.125
28.0625
28.0625
28.1875
28.25
28.4375
28.5
28.625
28.6875
28.875
28.9375
28.875
28.75
28.625
28.625
28.5625
28.5
28.4375
28.4375
28.5
28.5625
28.5625
28.6875
28.75
28.875
28.875
28.875
28.8125
28.75
28.9375
29.1875
29.0625
28.5
28.25
28.375
28.6875
28.75
28.625
28.4375
28.4375
28.5
28.625
28.75
28.6875
28.625
28.5625
28.6875
28.9375
29.0
28.8125
28.6875
28.5625
28.5625
28.5625
28.5
28.4375
28.5
28.75
28.875
28.6875
28.5625
28.4375
28.5625
28.75
28.6875
28.5625
28.4375
28.4375
28.375
28.25
28.1875
28.125
28.0625
28.0
28.0
28.0625
28.125
28.375
28.5625
28.75
28.875
28.875
28.8125
28.6875
28.625
28.5625
28.5
28.5
28.5
28.5
28.5
28.5625
28.625
28.6875
28.75
28.8125
28.8125
28.8125
28.75
28.875
29.25
29.25
28.5625
27.9375
28.0
28.3125
28.5
28.25
28.0
27.9375
28.125
28.3125
28.4375
28.4375
28.375
28.375
28.5
28.625
28.875
29.0
29.0625
28.875
28.6875
28.625
28.6875
28.6875
28.625
28.625
28.625
28.5625
28.5625
28.5
28.75
28.8125
28.625
28.4375
28.4375
28.4375
28.5
28.375
28.25
28.125
28.125
28.1875
28.3125
28.3125
28.25
28.1875
28.1875
28.3125
28.5
28.625
28.6875
28.75
28.75
28.8125
28.75
28.625
28.5625
28.5625
28.5
28.4375
28.5
28.875
29.0625
28.8125
28.4375
28.25
28.4375
28.625
28.5625
28.3125
28.1875
28.1875
28.25
28.25
28.0625
28.0625
28.0625
28.1875
28.25
28.375
28.4375
28.5
28.5625
28.625
28.6875
28.75
28.875
28.875
28.8125
28.75
28.6875
28.625
28.5
28.4375
28.375
28.375
28.375
28.375
28.4375
28.4375
28.4375
28.75
29.25
29.125
28.4375
28.0
28.0
28.375
28.5
28.3125
28.125
28.125
28.25
28.375
28.4375
28.4375
28.4375
28.4375
28.5625
28.625
28.625
28.5625
28.5
28.5
28.4375
28.5
28.625
28.6875
28.625
28.625
28.5625
28.4375
28.375
28.375
28.3125
28.3125
28.25
28.25
28.25
28.1875
28.1875
28.1875
28.25
28.3125
28.3125
28.375
28.4375
28.5
28.625
28.75
28.75
28.875
28.8125
28.75
28.75
28.6875
28.625
28.5625
28.5
28.4375
28.375
28.3125
28.5
29.0625
29.1875
28.6875
28.25
28.25
28.4375
28.5625
28.4375
28.1875
28.125
28.1875
28.25
28.375
28.4375
28.375
28.3125
28.25
28.25
28.4375
28.625
28.625
28.5625
28.5
28.5
28.625
28.5625
28.5625
28.5
28.4375
28.4375
28.4375
28.375
28.25
28.1875
28.1875
28.375
28.5
28.5625
28.5
28.4375
28.375
28.3125
28.3125
28.25
28.25
28.25
28.3125
28.4375
28.5
28.5
28.4375
28.4375
28.4375
28.5
28.5625
28.625
28.625
28.5625
28.5625
28.5
28.5
28.5
28.5625
28.5
28.5
28.5625
28.5625
28.625
28.75
28.6875
28.6875
28.625
28.625
28.6875
28.75
28.75
28.625
28.5625
28.5
28.375
28.1875
28.1875
28.1875
28.125
28.125
28.0625
27.9375
27.9375
28.0625
28.3125
28.4375
28.375
28.3125
28.3125
28.375
28.5
28.625
28.625
28.5625
28.5625
28.625
28.75
28.6875
28.6875
28.6875
28.5625
28.3125
28.3125
28.375
28.5
28.5625
28.6875
29.1875
29.1875
28.5625
28.0625
28.0
28.25
28.375
28.1875
27.9375
27.875
28.0
28.25
28.3125
28.3125
28.3125
28.375
28.375
28.4375
28.5
28.6875
28.8125
28.9375
28.9375
28.9375
29.0625
29.25
29.3125
29.375
29.5625
29.75
29.875
29.75
29.6875
29.625
29.625
29.625
29.6875
29.625
29.625
29.6875
29.75
29.6875
29.75
29.8125
29.6875
29.625
29.625
29.9375
30.25
30.3125
30.25
30.125
30.125
30.1875
30.0625
29.9375
29.9375
30.0
30.0
30.0
30.0
29.9375
29.8125
29.625
29.625
29.6875
29.875
29.9375
29.875
29.75
29.6875
29.625
29.5625
29.625
29.625
29.625
29.625
29.625
29.625
29.75
29.8125
29.8125
29.875
29.9375
29.875
29.8125
29.75
29.75
29.75
29.75
29.625
29.5625
29.5625
29.5625
29.5625
29.5625
29.625
29.5625
29.5625
29.5
29.5
29.5
29.5
29.4375
29.4375
29.5
29.4375
29.4375
29.4375
29.4375
29.4375
29.4375
29.4375
29.375
29.4375
29.4375
