0
113.0
101.8125
88.9375
76.8125
66.875
59.1875
52.875
47.625
43.6875
41.5
41.3125
42.0
42.875
43.5
43.9375
44.0
43.75
43.125
42.4375
41.625
40.75
39.875
39.0
38.0625
37.125
36.1875
35.375
34.6875
34.0625
33.4375
32.8125
32.25
31.75
31.25
30.8125
30.375
30.0
29.8125
29.5625
29.3125
28.9375
28.625
28.3125
28.0
27.75
27.5625
27.3125
27.125
26.8125
26.5
26.1875
26.0
25.8125
25.5625
25.375
25.125
24.9375
24.6875
24.4375
24.25
24.0625
23.9375
23.75
23.5625
23.4375
23.375
23.125
22.9375
22.8125
22.6875
22.5
22.5
23.875
32.5625
56.625
90.4375
115.0625
122.0
120.5625
114.9375
103.4375
89.1875
76.5
66.75
58.8125
52.0
46.625
42.75
40.0
38.6875
39.125
40.3125
41.3125
41.75
41.875
41.875
41.625
40.9375
40.0625
39.1875
38.3125
37.375
36.5
35.625
34.8125
34.0
33.25
32.625
32.0
31.4375
30.9375
30.5625
30.1875
29.9375
29.6875
29.5
29.4375
29.3125
29.3125
29.3125
29.3125
29.25
29.1875
29.1875
29.125
29.0625
29.0625
29.0
29.0625
30.0625
36.3125
54.3125
82.1875
106.8125
117.6875
118.5
116.0625
110.0625
99.9375
87.875
76.8125
67.9375
60.375
53.75
48.3125
44.3125
42.3125
41.875
42.1875
42.625
43.0
43.3125
43.375
43.125
42.625
42.0
41.125
40.25
39.375
38.5
37.6875
36.8125
35.9375
35.1875
34.5
33.9375
33.375
32.8125
32.3125
31.9375
31.5625
31.0625
30.6875
30.4375
30.1875
30.0
29.8125
29.4375
29.125
28.875
28.625
28.4375
28.125
27.8125
27.875
30.0625
41.75
69.5
103.75
124.625
129.0
127.125
121.6875
111.5625
99.5
88.0625
77.6875
68.125
60.0
53.5625
48.4375
44.5625
42.625
42.4375
43.0625
43.625
44.0
44.1875
44.1875
43.8125
43.1875
42.3125
41.4375
40.5625
39.75
38.8125
37.9375
37.0
36.1875
35.4375
34.6875
34.0625
33.4375
32.9375
32.4375
32.0
31.6875
31.3125
30.9375
30.625
30.375
30.1875
29.9375
29.6875
29.375
29.125
28.8125
28.5625
28.25
27.9375
27.6875
27.5
27.3125
27.0
26.75
26.5
26.1875
25.875
25.625
25.4375
25.1875
24.9375
24.6875
24.75
28.125
43.9375
78.0625
114.375
130.875
130.625
125.5625
116.8125
103.75
89.25
76.6875
66.4375
58.0625
51.4375
46.4375
42.875
40.8125
40.5625
41.5625
42.625
43.3125
43.75
43.8125
43.5625
42.9375
42.0625
41.1875
40.3125
39.375
38.4375
37.4375
36.5
35.625
34.8125
34.0625
33.375
32.8125
32.25
31.6875
31.1875
30.75
30.4375
30.0625
29.8125
29.5625
29.25
29.0
28.6875
28.4375
28.1875
27.875
27.625
27.3125
27.0625
26.8125
26.5
26.3125
26.0625
25.875
25.625
25.375
25.1875
25.0
24.75
24.5
24.375
24.1875
23.9375
23.8125
23.625
23.375
23.25
23.0625
22.9375
22.8125
22.6875
22.5625
22.4375
22.4375
22.5
22.5
22.625
22.625
22.8125
24.6875
35.0
61.875
97.1875
119.625
123.5625
119.375
111.0
97.625
82.625
69.75
60.0625
52.6875
47.25
43.375
40.8125
39.25
39.0
39.9375
41.1875
42.0
42.5
42.75
42.6875
42.25
41.5625
40.75
39.8125
38.875
37.9375
36.9375
36.0
35.25
34.5
33.8125
33.125
32.5625
32.0
31.6875
31.375
30.9375
30.5
30.25
30.0
29.75
29.5
29.25
29.0625
28.875
28.625
28.375
28.125
27.875
27.5625
27.3125
27.0625
26.875
26.6875
26.4375
26.1875
25.9375
25.6875
25.5625
25.4375
25.3125
25.0625
24.875
24.75
24.625
24.8125
27.9375
41.375
69.5
102.375
122.75
127.3125
125.5625
120.8125
112.3125
101.875
91.125
80.5625
70.4375
61.6875
54.8125
49.4375
45.1875
42.5625
42.0625
42.8125
43.625
44.125
44.375
44.375
44.125
43.5
42.625
41.8125
40.875
39.9375
38.875
37.8125
36.875
36.0
35.1875
34.4375
33.75
33.125
32.5
31.9375
31.4375
31.0
30.6875
30.3125
30.0625
29.8125
29.5
29.1875
28.875
28.625
28.3125
28.0625
27.8125
27.5
27.1875
26.9375
26.625
26.4375
26.1875
25.9375
25.6875
25.4375
25.25
25.125
24.875
24.6875
25.0
29.0625
45.375
76.0625
105.875
120.0
121.9375
119.3125
112.4375
101.1875
88.4375
76.6875
67.0
59.0625
52.4375
47.1875
43.125
40.6875
40.1875
41.0625
42.0625
42.625
42.9375
43.0
42.75
42.1875
41.4375
40.5625
39.625
38.625
37.5625
36.5625
35.625
34.8125
34.0625
33.3125
32.625
32.125
31.6875
31.3125
31.0
30.875
30.75
30.6875
30.625
30.6875
30.625
30.5625
30.5625
30.5
30.375
30.1875
30.0625
29.9375
29.8125
29.625
29.375
29.0625
28.8125
28.5625
28.25
27.875
27.625
27.375
27.125
27.3125
31.125
46.4375
76.375
108.625
125.9375
128.0625
124.4375
117.5
106.3125
92.75
80.125
70.0625
61.8125
54.875
49.375
45.25
42.6875
41.8125
42.25
43.125
43.75
44.125
44.375
44.3125
43.875
43.25
42.375
41.5
40.5
39.5625
38.5625
37.625
36.8125
36.0625
35.3125
34.5625
33.9375
33.375
32.8125
32.3125
31.875
31.5625
31.3125
31.0625
30.8125
30.5625
30.25
29.9375
29.6875
29.4375
29.25
29.0
28.6875
28.375
28.0625
27.8125
27.625
27.4375
27.1875
27.0
27.0625
29.625
42.1875
70.5
104.0625
123.5625
127.8125
126.6875
121.5625
111.25
98.125
85.5
74.75
65.6875
58.0625
51.75
46.875
43.75
42.4375
42.75
43.5625
44.375
44.875
45.125
44.9375
44.4375
43.6875
42.8125
41.875
41.0
40.0625
39.125
38.125
37.25
36.375
35.5625
34.8125
34.125
33.625
33.125
32.625
32.25
31.9375
31.5625
31.1875
30.875
30.625
30.375
30.0
29.6875
29.3125
29.0
28.625
28.25
27.9375
27.6875
27.4375
27.1875
26.9375
26.6875
26.75
29.75
43.75
74.0625
107.0
123.5625
125.4375
122.8125
116.375
104.625
90.1875
77.125
67.0
59.0625
52.4375
47.125
43.5
41.9375
42.0
42.8125
43.4375
43.9375
44.25
44.1875
43.75
43.0625
42.1875
41.3125
40.4375
39.5
38.5
37.5
36.625
35.6875
34.875
34.1875
33.5625
33.0
32.375
31.875
31.4375
31.0625
30.75
30.4375
30.125
29.875
29.625
29.3125
29.0625
28.8125
28.625
28.3125
27.875
27.5625
27.3125
27.125
26.875
26.6875
26.5
26.3125
26.125
25.9375
25.9375
27.625
38.4375
66.6875
102.625
124.3125
127.4375
122.875
115.125
103.25
88.8125
75.4375
65.0
57.125
51.125
46.4375
43.1875
41.625
41.875
43.0625
44.125
44.6875
45.0625
45.1875
44.9375
44.375
43.4375
42.4375
41.3125
40.3125
39.3125
38.375
37.375
36.5
35.75
35.0625
34.375
33.8125
33.3125
32.875
32.5
32.125
31.75
31.5
31.3125
31.0625
30.75
30.4375
30.1875
29.9375
29.6875
29.375
29.0625
28.75
28.5
28.25
28.125
27.8125
27.5625
27.3125
27.125
27.0
27.8125
35.0625
58.0625
94.4375
123.625
132.625
130.625
125.8125
117.0625
104.6875
92.0625
80.75
71.0
62.625
55.5625
50.0
45.9375
43.8125
43.625
44.3125
45.125
45.625
45.9375
45.9375
45.625
44.9375
44.0625
43.125
42.1875
41.1875
40.0625
39.0625
38.0625
37.25
36.5
35.75
35.0625
34.5
33.9375
33.4375
32.9375
32.5625
32.25
32.0
31.75
31.5
31.1875
30.875
30.5625
30.3125
30.0
29.75
29.5
29.25
28.9375
28.6875
28.375
28.125
28.125
30.375
42.25
70.875
106.1875
127.6875
131.0
126.9375
120.125
109.6875
96.5
82.875
71.1875
62.25
55.375
49.8125
45.5
43.0
42.625
43.4375
44.3125
44.875
45.3125
45.4375
45.125
44.4375
43.5625
42.6875
41.625
40.5
39.4375
38.4375
37.4375
36.625
35.8125
35.0625
34.4375
33.8125
33.25
32.6875
32.1875
31.75
31.4375
31.125
30.875
30.5625
30.3125
30.0
29.6875
29.4375
29.1875
28.9375
28.625
28.3125
28.0
27.6875
27.4375
27.1875
26.9375
26.75
26.8125
29.0
41.4375
70.875
104.75
122.625
124.75
121.875
115.0625
102.4375
87.25
74.0625
64.125
56.4375
50.25
45.5
42.3125
41.375
42.125
43.375
44.125
44.5
44.6875
44.625
44.1875
43.4375
42.5
41.4375
40.4375
39.5
38.4375
37.4375
36.4375
35.4375
34.625
33.875
33.3125
32.8125
32.25
31.8125
31.5625
31.375
31.1875
31.0
30.875
30.8125
30.8125
30.8125
30.8125
30.75
30.6875
30.5625
30.5625
30.5625
30.5
30.4375
30.25
30.125
29.9375
29.75
29.375
29.375
32.1875
46.125
76.75
111.5
130.5
133.4375
130.0625
121.875
108.875
94.5
81.5625
70.6875
61.625
54.5625
49.3125
45.625
43.625
43.4375
44.375
45.375
45.9375
46.125
46.125
45.875
45.25
44.375
43.5
42.5
41.5
40.4375
39.375
38.4375
37.625
36.8125
36.0625
35.375
34.75
34.1875
33.6875
33.25
32.9375
32.625
32.25
31.9375
31.6875
31.4375
31.0625
30.75
30.5625
30.375
30.0625
29.75
29.375
29.125
28.875
28.625
28.375
28.125
27.9375
27.75
27.5625
27.3125
27.0625
26.8125
26.75
27.5
34.0
56.1875
94.0625
126.4375
136.75
134.3125
129.25
120.625
108.3125
94.625
82.1875
72.0
63.5625
56.4375
50.625
46.625
44.875
44.9375
45.6875
46.375
46.75
47.0
46.875
46.375
45.5625
44.625
43.6875
42.6875
41.625
40.5
39.5
38.5
37.6875
36.9375
36.3125
35.5625
34.9375
34.375
33.9375
33.5
33.125
32.8125
32.5
32.1875
31.9375
31.5
31.125
30.6875
30.4375
30.125
29.8125
29.375
28.9375
28.5625
28.3125
28.0625
27.8125
27.5
27.25
27.0625
26.8125
26.625
26.375
26.1875
26.0625
25.875
25.625
25.375
25.25
25.125
24.9375
24.9375
27.0625
39.4375
69.625
106.3125
127.125
129.5625
125.375
117.6875
105.5625
91.1875
77.875
67.3125
59.25
52.9375
48.0
44.25
42.125
42.0625
43.25
44.3125
44.875
45.1875
45.1875
44.8125
44.125
43.25
42.1875
41.25
40.25
39.125
38.125
37.1875
36.25
35.5
34.75
34.125
33.5
32.9375
32.3125
31.8125
31.375
31.0625
30.6875
30.4375
30.125
29.8125
29.4375
29.125
28.875
28.6875
28.3125
28.0
27.75
27.5
27.3125
27.0625
26.875
26.6875
26.625
26.5625
26.5625
26.5625
26.625
26.75
26.875
27.0625
28.5
36.875
60.4375
94.25
118.6875
125.625
124.4375
119.9375
110.5625
97.25
83.5625
71.8125
62.4375
55.0625
49.5625
45.625
43.5
43.25
44.0625
44.9375
45.4375
45.6875
45.8125
45.5625
45.0625
44.3125
43.3125
42.375
41.3125
40.3125
39.3125
38.4375
37.5625
36.75
36.0625
35.375
34.75
34.1875
33.625
33.1875
32.8125
32.5
32.25
31.9375
31.625
31.375
31.0625
30.8125
30.5625
30.3125
30.0
29.75
29.5
29.25
28.9375
28.625
28.375
28.125
28.0
28.5
33.25
51.0
83.1875
114.125
128.5625
130.9375
129.5625
123.375
113.0
102.0
91.5625
81.3125
71.875
63.625
56.5625
50.875
47.125
45.625
45.6875
46.1875
46.625
46.8125
46.75
46.4375
45.875
45.0625
44.1875
43.25
42.3125
41.3125
40.375
39.4375
38.5625
37.6875
36.9375
36.1875
35.5625
35.0
34.5
34.0625
33.6875
33.25
32.875
32.5
32.125
31.75
31.4375
31.0625
30.75
30.4375
30.0625
29.6875
29.25
28.875
28.625
28.375
28.125
28.0
27.75
27.5625
28.4375
36.0625
60.0625
96.625
123.5
130.9375
129.75
126.0
117.3125
104.3125
90.4375
78.0625
67.8125
59.6875
53.25
48.1875
44.6875
43.4375
44.0
44.9375
45.5625
45.9375
46.125
46.0
45.4375
44.5625
43.625
42.6875
41.8125
40.6875
39.5625
38.5
37.5
36.625
35.8125
35.0625
34.4375
33.875
33.3125
32.8125
32.4375
32.0625
31.75
31.5
31.3125
31.0
30.75
30.4375
30.1875
29.9375
29.625
29.3125
29.3125
32.4375
47.0
76.875
107.5
123.0
125.75
123.0
116.1875
105.4375
92.625
80.375
70.1875
61.8125
54.625
48.6875
44.625
43.0
43.375
44.4375
45.25
45.8125
46.3125
46.5
46.25
45.6875
45.0
44.1875
43.375
42.4375
41.4375
40.4375
39.5625
38.75
38.0625
37.3125
36.625
36.0
35.4375
34.875
34.5
34.125
33.75
33.4375
33.125
32.8125
32.4375
32.1875
32.0
31.75
31.375
31.125
30.875
30.625
30.25
29.875
29.5625
29.3125
29.125
28.9375
28.6875
29.5
36.6875
61.0
100.4375
131.4375
140.3125
137.375
131.1875
120.8125
106.9375
92.5625
80.0625
69.8125
61.4375
54.8125
49.6875
46.1875
44.75
45.1875
46.25
47.125
47.625
47.8125
47.5625
47.0
46.1875
45.1875
44.25
43.1875
42.1875
41.125
40.125
39.25
38.3125
37.5625
36.8125
36.125
35.625
35.1875
34.6875
34.25
33.8125
33.5
33.125
32.875
32.625
32.375
32.0625
31.8125
31.625
31.25
30.9375
30.625
30.75
34.375
50.1875
82.4375
116.25
133.125
134.375
130.0
123.0625
113.0625
100.5
87.75
76.6875
67.4375
59.6875
53.25
48.6875
46.625
46.5
46.9375
47.3125
47.5625
47.6875
47.5625
47.0625
46.25
45.3125
44.3125
43.1875
42.0625
40.9375
39.9375
38.9375
38.0
37.25
36.625
36.0
35.375
34.75
34.1875
33.6875
33.25
32.9375
32.625
32.3125
32.0
31.6875
31.3125
30.9375
30.625
30.375
30.125
29.8125
29.5
29.1875
28.9375
28.625
28.3125
28.0625
27.9375
28.0625
31.375
47.75
83.3125
119.625
134.875
133.4375
127.4375
118.4375
105.25
90.25
77.25
67.3125
59.3125
52.75
47.8125
44.75
43.9375
44.6875
45.8125
46.5
46.875
47.0
46.75
46.125
45.25
44.125
43.125
42.0625
41.0625
39.9375
38.875
37.8125
36.9375
36.1875
35.4375
34.75
34.1875
33.75
33.3125
33.0
32.6875
32.5
32.3125
32.1875
32.0625
32.0
31.9375
31.875
31.875
31.8125
31.6875
31.5
31.4375
31.3125
31.1875
31.0625
30.9375
30.6875
30.4375
30.125
29.8125
29.6875
31.625
43.0
72.4375
110.1875
133.9375
139.0
135.3125
127.875
116.625
102.875
88.75
76.375
66.5625
59.0625
53.1875
48.8125
46.25
45.875
46.75
47.625
48.0625
48.25
48.125
47.6875
46.9375
46.0625
45.0
43.9375
42.8125
41.75
40.6875
39.75
38.9375
38.125
37.375
36.75
36.1875
35.625
35.125
34.625
34.125
33.8125
33.5625
33.25
33.0
32.625
32.3125
32.0
31.75
31.4375
31.125
30.875
30.625
30.3125
30.0
29.6875
29.375
29.125
28.875
28.75
28.5625
28.5625
30.875
43.8125
75.125
113.25
135.0
138.5625
136.25
130.375
120.1875
107.3125
93.75
80.875
69.8125
61.1875
54.6875
49.875
47.1875
46.625
47.1875
47.9375
48.4375
48.5625
48.4375
47.9375
47.0625
46.0625
44.9375
43.9375
42.875
41.75
40.5625
39.5
38.5
37.625
36.8125
36.125
35.5
34.9375
34.3125
33.8125
33.375
32.9375
32.5625
32.3125
32.0625
31.75
31.375
31.0625
30.75
30.4375
30.125
29.8125
29.5
29.1875
28.9375
28.6875
28.375
28.0625
27.8125
27.5625
27.375
27.25
27.0625
26.875
26.6875
26.4375
26.1875
25.9375
25.8125
25.6875
25.5625
25.4375
25.8125
31.125
52.125
89.6875
122.3125
133.8125
131.25
123.875
112.6875
97.9375
83.0625
70.9375
61.9375
54.9375
49.5
45.5
43.0625
42.625
43.75
45.1875
46.0625
46.4375
46.375
46.0625
45.5
44.625
43.6875
42.8125
41.875
40.9375
40.0
39.1875
38.4375
37.8125
37.3125
36.8125
36.5
36.125
35.8125
35.5
35.125
34.8125
34.4375
34.1875
33.875
33.5625
33.25
32.875
32.5
32.125
31.8125
31.4375
31.125
30.8125
30.4375
30.125
29.9375
29.6875
29.4375
29.1875
28.9375
28.6875
28.4375
28.1875
28.0
27.9375
29.1875
37.625
62.25
98.6875
126.8125
135.5
134.1875
131.125
124.1875
112.5625
99.625
88.0
77.5
68.125
60.3125
54.125
49.5625
47.0
46.5625
47.25
47.9375
48.25
48.25
48.0
47.5
46.75
45.8125
44.75
43.6875
42.6875
41.6875
40.6875
39.6875
38.75
37.9375
37.25
36.625
36.0
35.5
35.0
34.5
34.0625
33.6875
33.375
33.125
32.875
32.5625
32.1875
31.875
31.5625
31.3125
31.0
30.6875
30.4375
30.125
29.8125
29.5625
29.1875
28.9375
28.6875
28.5
28.375
28.1875
27.9375
27.6875
27.75
29.875
41.8125
71.375
108.3125
130.4375
135.125
133.375
127.5
116.5625
103.25
90.1875
78.3125
68.125
59.9375
53.4375
48.5
45.4375
44.5
45.0
45.9375
46.625
47.0
47.0625
46.8125
46.1875
45.3125
44.3125
43.3125
42.25
41.1875
40.0625
39.0
38.0625
37.1875
36.375
35.625
35.0
34.5
34.0
33.4375
32.9375
32.5625
32.1875
31.875
31.6875
31.4375
31.1875
30.8125
30.5
30.25
29.9375
29.5625
29.1875
28.9375
28.6875
28.4375
28.1875
27.875
27.625
27.375
27.125
26.9375
26.75
26.5625
26.4375
26.25
26.0625
26.3125
30.5
48.0
81.6875
113.5625
127.0625
127.5
124.0625
116.3125
103.125
87.9375
74.8125
65.0625
57.3125
50.9375
46.125
43.125
42.375
43.3125
44.625
45.5
46.0
46.1875
46.0625
45.625
44.9375
44.0625
43.0625
42.125
41.3125
40.4375
39.5625
38.75
38.0
37.375
36.8125
36.3125
35.8125
35.375
34.875
34.5
34.1875
33.8125
33.5
33.1875
32.875
32.5625
32.1875
31.9375
31.625
31.3125
31.0625
30.6875
30.375
30.0625
29.75
29.5
29.25
29.0
28.75
28.4375
28.25
28.0625
27.9375
29.125
37.375
61.5
97.4375
125.4375
135.0
134.375
129.875
121.5
110.0625
97.5
85.25
74.3125
65.3125
58.0625
52.1875
47.8125
45.6875
45.625
46.4375
47.1875
47.5625
47.75
47.5625
47.0625
46.3125
45.3125
44.3125
43.375
42.375
41.25
40.25
39.3125
38.4375
37.625
36.875
36.1875
35.5625
35.0
34.5
34.0625
33.625
33.3125
33.0
32.75
32.5
32.25
31.9375
31.6875
31.375
31.0625
30.6875
30.4375
30.25
29.9375
29.5625
29.25
29.0
28.75
28.5
28.3125
28.0625
27.875
27.6875
27.4375
27.25
27.0625
26.875
26.625
26.4375
26.375
26.25
26.0625
25.875
25.6875
25.625
25.8125
29.0
44.0625
77.3125
115.375
135.9375
138.25
133.3125
124.25
112.0625
98.3125
85.0625
73.625
64.375
57.1875
51.5625
47.3125
44.8125
44.1875
44.9375
45.875
46.5
46.875
46.875
46.5
45.8125
44.875
43.875
42.875
41.8125
40.6875
39.5625
38.5625
37.6875
36.875
36.0625
35.3125
34.6875
34.125
33.625
33.25
32.875
32.5
32.1875
31.9375
31.625
31.3125
31.0
30.625
30.375
30.0625
29.6875
29.375
29.0625
28.75
28.4375
28.125
27.75
27.5
27.25
27.0625
26.875
26.625
26.375
26.0
25.75
25.5625
25.4375
25.25
25.0625
24.875
24.75
24.5625
24.375
24.25
24.125
24.0
24.625
30.8125
51.9375
86.5
115.0
124.4375
122.8125
117.6875
108.0
94.25
80.25
68.9375
60.5
53.875
48.375
44.25
41.75
41.25
42.3125
43.6875
44.625
45.25
45.6875
45.9375
45.75
45.25
44.5
43.75
42.9375
42.0
41.125
40.125
39.125
38.125
37.375
36.75
36.0625
35.5
34.9375
34.4375
34.0
33.625
33.25
32.9375
32.6875
32.375
32.0625
31.8125
31.5625
31.3125
31.0
30.625
30.3125
30.0
29.75
29.5
29.25
29.0625
28.8125
28.5625
28.3125
28.0625
27.75
27.5
27.3125
27.1875
27.0
26.875
26.625
26.4375
26.375
26.25
26.0625
26.0
26.75
33.0
53.25
88.0
120.125
133.75
134.125
130.6875
124.875
115.6875
103.6875
90.5625
78.5
68.625
60.75
54.4375
49.4375
46.1875
45.1875
45.625
46.5
47.1875
47.5625
47.6875
47.5
46.9375
46.0625
45.125
44.0625
43.0
41.9375
40.8125
39.8125
39.0
38.125
37.3125
36.5625
36.0
35.4375
35.0
34.5
34.125
33.75
33.375
33.0625
32.75
32.5
32.1875
31.875
31.6875
31.3125
31.0625
30.8125
30.5
30.1875
29.9375
29.6875
29.4375
29.125
28.875
28.625
28.375
28.1875
27.9375
27.6875
27.5625
27.375
27.25
27.0
27.0
30.0625
44.0625
74.0625
108.75
128.625
131.5
129.0625
123.875
114.3125
102.0
89.25
77.375
67.625
60.0
53.9375
48.9375
45.625
44.5
45.0625
46.0
46.6875
47.0
47.0625
46.8125
46.25
45.375
44.4375
43.4375
42.3125
41.1875
40.125
39.125
38.1875
37.25
36.5
35.75
35.125
34.5
33.9375
33.5
33.0625
32.6875
32.375
32.0625
31.8125
31.5625
31.3125
31.0625
30.75
30.375
30.0
29.6875
29.4375
29.1875
28.8125
28.5625
28.3125
28.0625
27.8125
27.5
27.3125
27.1875
27.1875
29.4375
41.6875
70.0625
102.625
120.9375
124.1875
122.5
117.4375
106.9375
93.0625
79.8125
69.375
61.25
54.5
49.0625
45.1875
43.4375
43.875
45.4375
46.8125
47.75
48.25
48.375
48.125
47.625
46.75
45.6875
44.5625
43.375
42.3125
41.25
40.125
39.125
38.3125
37.5625
36.9375
36.3125
35.8125
35.25
34.8125
34.4375
34.25
33.9375
33.625
33.4375
33.1875
32.875
32.5
32.1875
31.9375
31.6875
31.3125
31.0625
30.75
30.5
30.25
30.0
29.75
29.5
29.3125
29.875
35.375
55.125
90.375
123.3125
137.6875
138.75
135.5625
129.0
118.75
106.375
93.9375
82.4375
72.4375
64.0
57.125
51.75
48.375
47.25
47.625
48.375
48.9375
49.25
49.3125
49.0625
48.5
47.625
46.5625
45.4375
44.3125
43.1875
42.125
41.125
40.1875
39.3125
38.5
37.8125
37.125
36.5
35.875
35.4375
35.0625
34.75
34.5
34.25
34.0
33.625
33.3125
33.0
32.75
32.5
32.125
31.8125
31.5
31.1875
30.875
30.625
30.375
30.125
30.0
31.25
40.0625
65.9375
103.5625
130.8125
138.875
137.625
132.75
123.125
109.6875
95.5
82.5
71.5625
63.0
56.25
50.875
47.25
45.9375
46.5
47.5625
48.3125
48.625
48.6875
48.5625
48.0625
47.25
46.125
45.0
43.9375
42.875
41.75
40.6875
39.6875
38.6875
37.8125
37.0
36.25
35.625
35.0625
34.625
34.1875
33.8125
33.5
33.1875
32.875
32.5625
32.25
31.9375
31.75
31.5
31.125
30.75
30.4375
30.1875
29.9375
29.625
29.25
29.0
28.75
28.625
28.375
28.125
27.9375
27.875
29.125
38.6875
66.5
104.9375
130.25
136.0
133.3125
127.125
115.4375
99.375
84.0625
72.375
63.625
56.375
50.5625
46.3125
43.9375
43.75
45.0
46.4375
47.25
47.6875
47.8125
47.625
47.0
46.0
44.875
43.75
42.5625
41.4375
40.375
39.375
38.375
37.625
37.0625
36.5625
36.125
35.75
35.5
35.375
35.3125
35.1875
35.1875
35.1875
35.0625
34.9375
34.6875
34.5
34.1875
33.875
33.4375
33.0625
32.625
32.25
31.875
31.5625
31.3125
32.375
40.1875
64.0
100.1875
128.9375
139.375
139.0
134.9375
127.9375
117.125
103.4375
89.4375
77.625
68.4375
60.9375
54.5625
49.75
47.375
47.1875
47.875
48.625
49.1875
49.5
49.5
49.0625
48.25
47.375
46.3125
45.1875
44.0
42.8125
41.8125
40.875
40.0
39.125
38.3125
37.625
36.9375
36.375
35.875
35.375
35.0
34.625
34.375
34.125
33.8125
33.4375
33.1875
32.9375
32.625
32.3125
32.0
31.625
31.3125
31.0625
30.8125
30.5
30.25
30.0
29.875
30.5625
37.3125
60.75
100.125
133.5625
145.3125
143.4375
137.6875
128.3125
115.0625
100.5625
87.1875
75.8125
66.4375
58.75
52.75
48.625
46.8125
46.9375
47.8125
48.6875
49.3125
49.5625
49.375
48.8125
47.9375
46.875
45.8125
44.75
43.625
42.5
41.4375
40.375
39.4375
38.625
37.875
37.25
36.625
36.125
35.6875
35.1875
34.75
34.375
34.125
33.875
33.5625
33.25
32.9375
32.625
32.375
32.0
31.5
31.125
30.75
30.4375
30.0625
29.75
29.4375
29.125
28.875
28.6875
28.4375
28.1875
28.125
29.375
38.6875
66.25
105.75
133.25
140.0
137.25
130.75
119.125
103.9375
89.125
76.75
66.5
58.3125
51.9375
47.3125
44.5625
44.125
45.25
46.625
47.625
48.1875
48.3125
47.9375
47.25
46.3125
45.25
44.0625
42.8125
41.625
40.5625
39.5625
38.625
37.6875
36.75
35.9375
35.3125
34.75
34.3125
33.8125
33.5
33.125
32.8125
32.5625
32.1875
31.875
31.625
31.4375
31.125
30.875
30.5625
30.25
29.9375
29.625
29.375
29.1875
28.9375
28.75
28.5
28.3125
28.0625
27.875
27.75
27.625
27.5625
27.5
27.4375
27.4375
27.4375
27.5625
27.625
27.75
27.875
28.375
32.5625
49.5625
83.9375
119.4375
135.6875
135.5
129.3125
117.8125
101.6875
85.5625
72.6875
62.75
54.9375
49.1875
45.3125
43.0625
42.5
43.5625
45.3125
46.6875
47.5
47.75
47.6875
47.1875
46.3125
45.125
43.9375
42.75
41.6875
40.5625
39.5
38.5
37.625
36.8125
36.0
35.375
34.875
34.5
34.125
33.75
33.4375
33.125
32.8125
32.5
32.25
32.0
31.875
31.625
31.375
31.0625
30.75
30.4375
30.125
29.875
29.5625
29.3125
29.0625
28.875
28.6875
28.4375
28.125
27.875
28.1875
31.9375
47.8125
80.3125
115.9375
135.375
138.9375
136.5625
130.875
121.375
109.375
96.6875
84.6875
74.125
65.0625
57.5
51.4375
47.5625
46.125
46.1875
46.9375
47.5625
48.0
48.25
48.0625
47.5625
46.6875
45.625
44.5
43.375
42.125
41.0
40.0
39.0
38.0
37.1875
36.4375
35.8125
35.125
34.5
34.0
33.5625
33.1875
32.875
32.5625
32.25
31.9375
31.5625
31.3125
31.0625
30.75
30.4375
30.125
29.8125
29.5
29.1875
28.875
28.5625
28.25
28.0
27.75
27.5625
27.375
27.125
26.875
26.625
26.5
26.5
28.625
41.1875
71.5
107.9375
129.3125
133.75
131.0625
124.1875
112.375
96.875
81.8125
70.0625
61.4375
54.625
49.125
45.0
42.75
42.5625
43.6875
44.875
45.625
46.0625
46.1875
46.0625
45.4375
44.5625
43.625
42.5625
41.5
40.375
39.3125
38.375
37.5
36.5625
35.875
35.3125
34.8125
34.375
34.0
33.75
33.5625
33.375
33.25
33.125
33.0
32.875
32.6875
32.4375
32.1875
31.8125
31.5
31.1875
30.875
30.5
30.125
29.875
29.625
29.4375
29.125
28.8125
28.5
28.1875
28.0
27.8125
27.625
27.625
29.9375
42.1875
71.4375
108.375
131.8125
136.4375
133.4375
127.125
116.375
102.75
89.0625
77.3125
67.9375
60.25
53.75
48.6875
45.375
44.125
44.375
45.1875
46.0
46.5625
46.8125
46.75
46.1875
45.25
44.1875
43.125
42.125
41.125
40.0625
39.0
38.1875
37.375
36.5
35.75
35.0625
34.5625
34.0625
33.625
33.3125
32.9375
32.5625
32.25
31.9375
31.6875
31.4375
31.1875
30.9375
30.625
30.375
30.0
29.6875
29.4375
29.1875
28.875
28.5625
28.375
28.25
27.9375
27.6875
27.4375
27.1875
27.0625
26.875
26.6875
26.5
26.6875
30.0625
45.25
77.6875
113.9375
133.0625
134.9375
131.3125
124.625
113.3125
98.8125
84.5625
72.875
63.625
56.0
49.9375
45.5
42.9375
42.5
43.3125
44.5
45.3125
45.8125
45.9375
45.6875
45.125
44.25
43.25
42.25
41.25
40.25
39.1875
38.125
37.125
36.1875
35.4375
34.6875
34.125
33.5625
33.0625
32.5625
32.0625
31.6875
31.3125
31.0
30.6875
30.5
30.3125
30.0
29.75
29.5
29.1875
28.8125
28.5625
28.875
33.3125
50.3125
80.9375
109.25
122.125
124.1875
121.875
114.75
103.5
90.5625
77.875
67.0
58.5
51.6875
46.25
42.75
41.6875
42.4375
43.4375
44.125
44.6875
45.0
44.9375
44.4375
43.625
42.6875
41.6875
40.625
39.5
38.375
37.375
36.375
35.625
35.0
34.3125
33.75
33.25
32.875
32.6875
32.5625
32.375
32.25
32.1875
32.1875
32.1875
32.125
32.0
31.9375
31.875
31.6875
31.375
31.5625
35.4375
51.625
83.5
115.875
131.125
132.0
127.875
119.25
105.625
90.375
76.9375
66.4375
58.3125
51.9375
47.0
43.8125
42.75
43.375
44.375
45.1875
45.8125
46.25
46.25
45.8125
45.0
44.0
42.9375
41.9375
40.8125
39.75
38.75
37.8125
36.9375
36.1875
35.4375
34.8125
34.3125
33.8125
33.375
32.9375
32.625
32.3125
32.0
31.6875
31.4375
31.1875
31.0
30.75
30.5
30.1875
29.8125
29.5
29.1875
28.9375
28.6875
28.5
28.1875
27.9375
27.75
27.5625
27.8125
31.5625
49.0
85.375
123.875
142.6875
143.375
137.0625
127.0625
113.75
98.875
84.8125
73.0625
63.8125
56.625
50.8125
46.4375
43.9375
43.5625
44.375
45.5
46.3125
46.75
46.75
46.4375
45.875
45.0
44.0
42.9375
41.875
40.75
39.75
38.75
37.75
36.875
36.125
35.5
34.9375
34.375
33.75
33.25
32.75
32.375
32.0625
31.8125
31.5625
31.25
30.8125
30.375
30.0625
29.8125
29.5625
29.25
29.0
28.625
28.25
27.9375
27.6875
27.375
27.125
26.9375
26.6875
26.5
26.25
26.0
25.75
25.5
25.3125
25.125
25.0
24.8125
24.75
26.375
37.3125
67.375
107.0625
130.9375
134.4375
130.1875
121.6875
108.0625
92.5
78.875
68.0625
59.4375
52.5
47.25
43.5
41.5
41.4375
42.75
44.0625
44.875
45.375
45.5
45.125
44.375
43.375
42.3125
41.25
40.1875
39.125
38.0625
37.0625
36.0625
35.1875
34.4375
33.8125
33.1875
32.625
32.125
31.75
31.4375
31.125
30.8125
30.5
30.3125
30.125
30.0
29.875
29.75
29.625
29.5
29.4375
29.375
29.375
29.5625
29.625
29.6875
29.625
29.625
29.5625
29.5
29.375
29.25
29.0
28.6875
28.375
28.0625
27.875
27.625
27.375
27.625
31.375
47.0625
79.4375
114.75
133.8125
135.625
129.9375
120.5
107.8125
93.5
80.0625
68.875
59.875
53.0625
48.0
44.5625
42.8125
42.9375
44.0625
45.125
45.9375
46.3125
46.4375
46.1875
45.4375
44.5
43.5625
42.4375
41.4375
40.4375
39.375
38.4375
37.5
36.6875
35.9375
35.3125
34.8125
34.25
33.75
33.25
32.875
32.5
32.1875
31.9375
31.75
31.5
31.25
31.0
30.6875
30.375
30.0625
29.75
29.5
29.25
29.0
28.75
28.5
28.1875
27.9375
27.6875
27.5
27.375
27.25
27.6875
33.0
52.0625
86.25
118.4375
133.125
134.5625
131.0625
123.625
113.5
102.125
89.625
77.625
67.8125
60.125
53.75
48.6875
45.625
44.875
45.375
46.1875
46.75
47.125
47.3125
47.0625
46.5
45.625
44.5625
43.5
42.4375
41.3125
40.25
39.1875
38.1875
37.25
36.3125
35.5625
34.8125
34.1875
33.6875
33.25
32.875
32.5
32.25
31.9375
31.6875
31.3125
30.9375
30.6875
30.4375
30.1875
29.875
29.5
29.125
28.875
28.5625
28.3125
28.0625
27.875
27.625
27.4375
27.1875
27.9375
35.125
58.0
93.1875
120.5625
129.5625
128.6875
123.6875
113.8125
100.5625
87.125
75.4375
65.5625
57.5
51.0625
46.25
43.1875
42.375
43.3125
44.6875
45.6875
46.1875
46.3125
46.0625
45.5
44.5625
43.5
42.4375
41.375
40.3125
39.1875
38.0
36.9375
36.0625
35.3125
34.6875
34.0625
33.5
33.0
32.5
32.1875
32.0
31.75
31.5
31.3125
31.25
31.1875
31.125
30.9375
30.875
30.8125
30.75
30.8125
30.8125
30.75
30.6875
30.6875
30.625
30.5
30.875
35.1875
52.0625
83.875
116.0
131.75
133.0
128.75
120.375
107.875
93.5625
80.5
69.9375
61.5
54.6875
49.4375
45.9375
44.625
45.0
46.0
46.875
47.4375
47.75
47.75
47.25
46.4375
45.3125
44.1875
43.1875
42.125
41.0625
40.0625
39.125
38.1875
37.375
36.625
35.9375
35.375
34.875
34.4375
34.0625
33.75
33.4375
33.125
32.875
32.5625
32.3125
32.0625
31.75
31.5
31.1875
30.875
30.625
30.375
30.125
29.8125
29.5
29.3125
30.5625
39.5625
65.6875
103.6875
131.125
138.8125
137.1875
132.8125
123.9375
111.0625
97.4375
85.1875
74.4375
65.1875
57.6875
51.9375
48.0
46.25
46.375
47.25
48.0625
48.5
48.6875
48.4375
47.875
47.0625
46.125
45.125
44.0
42.875
41.625
40.625
39.625
38.75
37.875
37.125
36.5
36.0
35.4375
35.0
34.5625
34.125
33.6875
33.375
33.0625
32.75
32.375
32.0
31.625
31.25
30.875
30.5
30.25
29.9375
29.625
29.375
29.1875
28.9375
28.6875
29.375
36.5
60.5625
99.25
129.6875
138.9375
136.25
130.0
120.375
107.125
92.4375
79.375
69.1875
61.125
54.3125
48.75
45.1875
44.1875
45.0
46.375
47.3125
47.8125
47.9375
47.625
46.9375
45.9375
44.875
43.6875
42.5625
41.4375
40.25
39.125
38.125
37.3125
36.5625
35.8125
35.125
34.5625
34.0
33.5
33.0625
32.6875
32.375
32.0625
31.8125
31.5625
31.3125
31.0
30.6875
30.375
30.125
29.8125
29.5625
29.3125
29.125
28.9375
28.6875
28.5
28.375
28.25
28.1875
28.0625
28.4375
32.9375
51.9375
88.1875
121.125
134.25
134.125
128.9375
118.6875
104.0
88.625
75.6875
65.6875
57.8125
51.625
47.3125
45.0
44.8125
45.9375
47.125
48.0625
48.5625
48.6875
48.4375
47.6875
46.8125
45.6875
44.5625
43.4375
42.25
41.125
40.125
39.125
38.25
37.4375
36.6875
36.125
35.625
35.125
34.625
34.3125
34.0
33.625
33.3125
33.0
32.75
32.625
32.375
32.0625
31.75
31.375
31.0625
30.75
30.5
30.25
30.0
29.75
29.5
29.3125
29.0
28.75
29.5
36.3125
59.3125
97.5625
130.5
143.1875
142.5
137.0
128.375
117.0
104.25
91.5625
79.6875
69.5625
61.5
54.875
49.875
47.125
46.5625
47.3125
48.375
49.0625
49.4375
49.4375
49.125
48.375
47.4375
46.3125
45.125
43.9375
42.6875
41.5
40.5
39.5625
38.6875
37.8125
37.0625
36.5
35.875
35.3125
34.875
34.5
34.25
33.9375
33.6875
33.375
33.0625
32.6875
32.375
32.125
31.8125
31.5625
31.3125
31.0
30.625
30.25
30.0
29.6875
29.4375
29.1875
29.0
28.6875
28.4375
28.125
27.8125
27.5
27.25
27.0625
26.875
26.9375
29.875
45.0625
80.1875
120.4375
140.875
141.0625
134.75
125.625
112.625
97.5
83.125
71.5
62.75
55.8125
50.25
46.125
44.0625
44.1875
45.4375
46.75
47.5
48.0
47.9375
47.4375
46.625
45.5625
44.4375
43.3125
42.1875
41.0625
39.875
38.9375
38.0
37.0
36.1875
35.4375
34.8125
34.3125
33.8125
33.375
33.0625
32.75
32.4375
32.125
31.8125
31.5
31.25
31.0
30.75
30.375
30.0
29.6875
29.375
29.0625
28.8125
28.5625
28.3125
28.0625
27.875
27.625
27.5
27.25
27.125
27.0
26.9375
26.9375
26.875
26.8125
27.8125
35.375
59.0
95.125
123.1875
131.9375
129.6875
122.5625
110.0
93.8125
79.0625
68.125
60.0
53.5
48.4375
44.9375
43.3125
43.5
44.75
45.875
46.6875
47.1875
47.1875
46.875
46.25
45.375
44.25
43.125
42.0625
40.9375
39.8125
38.8125
37.8125
37.0625
36.375
35.75
35.1875
34.625
34.25
33.8125
33.375
33.0
32.6875
32.4375
32.25
32.0625
31.8125
31.5
31.125
30.875
30.625
30.25
30.0
29.8125
29.5
29.125
28.875
28.625
28.4375
28.1875
28.0
27.75
27.5625
27.3125
27.125
26.9375
26.75
26.5625
26.5
26.375
26.1875
26.0
26.1875
29.5625
44.8125
77.375
113.5625
133.5625
136.9375
134.625
128.875
118.375
105.1875
91.875
79.9375
69.8125
61.4375
54.6875
49.5
46.125
44.9375
45.4375
46.4375
47.375
47.875
48.125
47.875
47.3125
46.3125
45.25
44.125
42.875
41.625
40.375
39.3125
38.3125
37.375
36.4375
35.6875
35.125
34.5625
34.0
33.5
33.0
32.6875
32.4375
32.125
31.8125
31.5
31.125
30.8125
30.5625
30.25
30.0
29.6875
29.4375
29.125
28.75
28.4375
28.4375
31.1875
44.1875
72.3125
103.75
122.0625
126.5
124.9375
119.1875
109.1875
96.9375
84.4375
73.3125
64.3125
56.8125
50.5
45.8125
43.5625
43.625
44.5
45.25
45.875
46.25
46.4375
46.125
45.4375
44.5
43.375
42.375
41.25
40.125
39.0
37.8125
36.8125
36.0
35.25
34.5
33.9375
33.375
32.875
32.4375
32.0625
31.6875
31.375
31.125
30.9375
30.75
30.375
30.0
29.75
29.5625
29.375
29.25
29.125
29.0
29.0
29.0
29.0
29.125
29.1875
29.375
31.0
40.4375
66.5
102.8125
127.8125
133.8125
130.3125
122.5
110.1875
95.125
80.875
69.75
61.5625
55.125
49.875
46.125
44.0625
44.0
45.0
46.125
46.8125
47.1875
47.25
47.0
46.3125
45.375
44.1875
43.0625
41.9375
40.875
39.8125
38.8125
37.9375
37.1875
36.4375
35.75
35.25
34.6875
34.1875
33.8125
33.5
33.1875
32.875
32.5
32.25
32.0
31.875
31.5625
31.25
30.9375
30.6875
30.375
30.0625
29.6875
29.4375
29.1875
28.9375
28.6875
28.5
28.25
28.0
27.8125
27.625
27.6875
29.8125
41.875
72.3125
110.625
134.125
139.125
137.375
132.625
123.625
111.375
98.125
85.8125
74.8125
65.375
57.75
51.875
47.6875
45.6875
45.6875
46.6875
47.8125
48.5625
48.875
48.6875
48.125
47.25
46.1875
45.0625
43.875
42.6875
41.5625
40.5
39.5
38.6875
37.8125
37.0625
36.3125
35.75
35.1875
34.6875
34.25
33.9375
33.625
33.3125
33.0
32.6875
32.3125
32.0
31.8125
31.5625
31.3125
31.0
30.6875
30.375
30.0
29.6875
29.4375
29.25
28.9375
28.75
28.625
28.375
28.125
27.875
27.6875
27.9375
32.0
49.25
84.25
120.6875
138.5
139.6875
134.75
126.0
113.8125
99.875
86.125
74.3125
65.0
57.6875
51.875
47.5
45.1875
45.0
45.8125
46.625
47.1875
47.5625
47.625
47.1875
46.4375
45.4375
44.375
43.25
42.0625
40.9375
39.9375
38.9375
38.0
37.125
36.3125
35.625
35.0625
34.5
33.8125
33.375
33.125
32.75
32.4375
32.125
31.8125
31.5
31.1875
30.9375
30.6875
30.4375
30.0625
29.75
29.4375
29.0625
28.75
28.4375
28.1875
28.0
27.75
27.5
27.25
27.0625
26.8125
26.5625
26.375
26.25
26.1875
26.0
25.8125
25.5625
25.375
25.1875
25.0
24.875
24.6875
24.625
24.4375
24.1875
24.0625
24.0
23.875
23.8125
23.625
23.625
26.125
39.75
72.0625
109.5
128.6875
129.25
123.3125
112.8125
97.0625
81.0
68.5
59.6875
53.0
47.8125
44.125
41.75
40.75
41.375
43.1875
44.875
45.8125
46.25
46.4375
46.25
45.6875
44.8125
43.9375
43.0
42.0625
41.25
40.375
39.4375
38.4375
37.5625
36.8125
36.0625
35.5
34.875
34.375
34.0
33.625
33.3125
32.9375
32.6875
32.4375
32.1875
31.9375
31.6875
31.5
31.25
30.875
30.4375
30.1875
29.9375
29.6875
29.4375
29.125
28.8125
28.5625
28.4375
28.1875
27.9375
27.6875
27.5
27.3125
27.1875
27.0
26.8125
26.625
26.4375
26.3125
26.1875
27.0
33.375
53.9375
88.375
119.9375
133.8125
134.9375
131.625
125.0
115.75
104.5
92.3125
80.9375
71.25
63.125
56.1875
50.5
46.75
45.1875
45.3125
46.0625
46.9375
47.5
47.75
47.5625
47.0625
46.1875
45.125
44.0
42.875
41.8125
40.8125
39.8125
38.9375
38.125
37.3125
36.5
35.875
35.25
34.75
34.3125
33.875
33.5
33.125
32.75
32.5
32.1875
31.875
31.625
31.375
31.125
30.75
30.4375
30.125
29.8125
29.5
29.25
29.0
28.8125
28.625
28.375
28.75
33.6875
51.5
83.375
114.125
128.375
129.4375
126.9375
121.8125
112.0
99.125
86.125
75.0
65.875
58.25
51.875
47.125
44.5
44.0
44.5625
45.375
46.0625
46.5
46.5
46.125
45.375
44.5
43.5
42.4375
41.4375
40.375
39.3125
38.25
37.3125
36.375
35.625
34.9375
34.3125
33.75
33.25
32.75
32.3125
32.0
31.75
31.4375
31.1875
30.875
30.625
30.3125
30.0
29.625
29.3125
29.0
28.6875
28.4375
28.1875
27.875
27.625
27.375
27.0625
26.8125
26.625
26.4375
26.3125
26.125
25.9375
25.75
25.625
27.0625
36.9375
63.875
100.125
123.8125
129.3125
127.0
120.1875
107.5625
92.1875
78.3125
67.75
59.5
52.875
47.625
43.8125
41.625
41.375
42.5
43.8125
44.5625
44.9375
45.0625
44.875
44.375
43.625
42.6875
41.75
40.75
39.8125
38.9375
38.125
37.3125
36.5625
36.0
35.5625
35.25
34.9375
34.5625
34.125
33.75
33.4375
33.125
32.875
32.5625
32.1875
31.8125
31.5
31.3125
31.0
30.625
30.25
30.0
29.6875
29.375
29.125
28.875
28.5625
28.3125
28.0
27.875
28.3125
32.625
49.625
82.1875
115.8125
132.5
133.375
129.1875
122.9375
113.5
100.8125
87.625
76.4375
67.25
59.4375
52.9375
48.0625
45.3125
44.625
45.0
45.75
46.5
46.9375
47.0
46.625
45.9375
45.0
44.0
43.0
42.0
40.875
39.8125
38.875
38.0
37.0
36.1875
35.5
34.9375
34.4375
33.9375
33.5
33.125
32.6875
32.375
32.0625
31.8125
31.5625
31.3125
31.0
30.75
30.5
30.125
29.8125
29.5
29.1875
28.875
28.625
28.4375
28.1875
27.9375
27.6875
27.4375
27.4375
29.0625
39.5
67.125
104.6875
130.375
136.0625
132.6875
126.75
117.375
104.75
90.875
78.3125
68.0
59.6875
53.0625
47.9375
44.4375
43.0625
43.4375
44.5
45.3125
45.875
46.1875
46.0625
45.5625
44.75
43.875
42.8125
41.625
40.375
39.1875
38.1875
37.25
36.4375
35.625
34.875
34.25
33.625
33.125
32.6875
32.25
31.875
31.625
31.375
31.0625
30.8125
30.4375
30.125
29.8125
29.5625
29.25
28.9375
28.6875
28.375
28.0625
27.75
27.4375
27.1875
26.9375
26.6875
26.5
26.25
26.0
25.8125
25.625
25.375
25.25
25.0625
24.875
24.6875
24.5625
24.3125
24.1875
24.8125
31.1875
53.375
89.75
119.625
130.4375
129.0
121.625
108.8125
93.3125
79.1875
67.875
59.1875
52.5
47.375
43.6875
41.5
41.1875
42.1875
43.4375
44.25
44.625
44.6875
44.375
43.8125
42.9375
42.0
41.0
40.0625
39.1875
38.25
37.375
36.5
35.75
35.0625
34.625
34.25
33.875
33.5625
33.3125
33.1875
33.0625
32.9375
32.75
32.5
32.3125
32.0
31.75
31.4375
31.0625
30.6875
30.375
30.0
29.6875
29.3125
28.9375
28.625
28.4375
28.1875
28.0
27.75
27.5
27.3125
27.0625
26.75
26.5
26.25
26.1875
26.0625
25.9375
25.6875
25.5
25.3125
25.1875
25.125
25.8125
32.25
53.625
89.3125
121.25
134.5
133.9375
128.9375
120.375
108.625
95.75
83.3125
72.125
62.9375
55.8125
50.1875
45.875
43.1875
42.625
43.25
44.125
44.875
45.4375
45.6875
45.5
44.875
44.0
43.0
42.0
41.0
40.0
38.9375
37.9375
37.0625
36.25
35.4375
34.6875
34.0625
33.5625
33.0625
32.6875
32.375
32.0625
31.6875
31.375
31.125
30.875
30.5625
30.3125
30.0625
29.8125
29.5625
29.1875
28.8125
28.5
28.25
28.0
27.8125
27.625
27.3125
27.0625
26.8125
26.5625
26.375
26.125
25.875
25.625
25.375
25.1875
24.9375
24.6875
24.4375
24.25
24.3125
26.9375
40.0
69.4375
104.125
124.875
129.375
126.625
119.6875
109.0
96.0
82.9375
71.8125
62.875
55.5625
49.6875
45.25
42.5
41.625
42.125
43.0
43.8125
44.3125
44.5625
44.375
43.8125
43.0
42.0
41.0
40.0
38.9375
37.9375
37.0
36.0625
35.1875
34.375
33.6875
33.0
32.375
31.8125
31.3125
31.0
30.6875
30.3125
30.0
29.75
29.5
29.25
28.9375
28.6875
28.5625
30.125
38.9375
61.125
89.6875
108.5625
114.0625
113.375
109.8125
102.0625
90.8125
79.4375
69.5
60.9375
53.5
47.3125
42.625
40.1875
39.875
40.6875
41.5
42.125
42.6875
43.0
42.9375
42.4375
41.75
40.8125
39.8125
38.75
37.6875
36.6875
35.8125
35.0
34.25
33.5
32.875
32.4375
32.1875
31.9375
31.75
31.6875
31.6875
31.6875
31.6875
31.75
31.75
31.6875
31.5625
31.4375
31.25
30.9375
30.5625
30.1875
29.75
29.4375
29.1875
28.875
28.5625
28.1875
27.9375
28.9375
37.0
61.75
99.4375
127.875
134.875
130.375
122.875
111.125
95.6875
81.0625
69.75
61.125
54.375
49.125
45.3125
42.8125
42.0
42.75
43.9375
44.8125
45.3125
45.5625
45.4375
44.8125
43.875
42.6875
41.6875
40.6875
39.625
38.5625
37.5625
36.625
35.75
35.0
34.3125
33.8125
33.375
32.9375
32.5
32.125
31.75
31.375
31.125
30.875
30.6875
30.5
30.1875
29.875
29.5625
29.3125
29.0625
28.75
28.4375
28.1875
27.9375
27.6875
27.4375
27.1875
26.9375
27.625
33.875
55.375
91.8125
123.5
134.875
133.5625
128.8125
120.0625
107.3125
93.1875
80.3125
69.875
61.4375
54.5
48.9375
45.0625
43.25
43.25
44.0
44.875
45.5625
45.875
45.75
45.25
44.5625
43.75
42.8125
41.8125
40.75
39.5625
38.5625
37.6875
36.875
36.0625
35.25
34.5625
34.0625
33.5625
33.0
32.5625
32.1875
31.875
31.625
31.375
31.125
30.8125
30.5
30.1875
29.875
29.5625
29.1875
28.8125
28.4375
28.0625
27.6875
27.375
27.125
26.875
26.6875
26.5625
27.8125
36.9375
63.5625
101.4375
127.0
132.0625
128.1875
121.0
109.3125
94.1875
80.0625
69.0
60.3125
53.1875
47.5625
43.5
41.375
41.1875
42.1875
43.375
44.1875
44.6875
44.8125
44.5625
43.9375
43.0
42.0625
41.0
39.9375
38.875
37.8125
36.75
35.875
35.0
34.25
33.5
32.875
32.3125
31.8125
31.375
31.0625
30.8125
30.4375
30.1875
30.0
29.75
29.5
29.3125
29.0625
28.75
28.4375
28.0625
27.75
27.5
27.25
27.0
26.75
26.4375
26.1875
26.0
25.75
26.0
30.4375
48.9375
83.3125
114.375
126.0
125.125
120.25
110.25
95.375
80.1875
68.25
59.5
52.4375
46.75
42.75
40.5
40.375
41.625
43.3125
44.625
45.3125
45.625
45.625
45.3125
44.625
43.75
42.8125
41.8125
40.875
39.875
38.9375
38.0
37.0
36.25
35.5
34.875
34.1875
33.6875
33.25
32.9375
32.5625
32.1875
31.875
31.6875
31.4375
31.25
31.0
30.75
30.4375
30.1875
29.875
29.5625
29.25
28.9375
28.5625
28.3125
28.125
27.875
27.625
27.375
27.4375
29.5
41.3125
70.8125
109.125
133.0
136.5625
132.125
124.75
113.8125
100.75
87.5625
75.875
66.375
58.625
52.375
47.5625
44.375
43.3125
43.8125
44.875
45.6875
46.1875
46.375
46.125
45.5625
44.6875
43.6875
42.6875
41.75
40.75
39.6875
38.6875
37.75
36.8125
36.0
35.25
34.6875
34.25
33.8125
33.375
32.875
32.5
32.25
32.0
31.75
31.5
31.1875
30.9375
30.6875
30.375
30.0
29.625
29.3125
29.125
29.0
28.6875
28.375
28.0625
27.8125
27.625
27.4375
27.25
27.125
28.125
35.6875
59.75
97.875
128.125
137.125
133.9375
127.3125
117.375
103.375
88.3125
75.75
66.0
58.125
51.625
46.8125
43.8125
43.0
43.625
44.6875
45.625
46.1875
46.4375
46.1875
45.5
44.625
43.5625
42.4375
41.4375
40.375
39.3125
38.3125
37.3125
36.375
35.625
34.875
34.1875
33.625
33.125
32.6875
32.3125
31.9375
31.5625
31.25
30.875
30.625
30.375
30.125
29.875
29.5625
29.25
28.9375
28.5625
28.25
28.0
27.8125
27.5625
27.3125
27.0625
26.8125
26.625
26.375
26.125
25.9375
25.75
25.5625
25.4375
25.4375
27.375
39.25
68.9375
104.875
125.25
128.3125
124.75
116.5
102.9375
87.25
74.0
64.3125
56.75
50.375
45.375
42.1875
40.75
41.0625
42.3125
43.4375
44.125
44.5625
44.5625
44.25
43.625
42.75
41.8125
40.8125
39.8125
38.75
37.6875
36.6875
35.75
34.9375
34.3125
33.8125
33.4375
33.125
32.875
32.75
32.625
32.5625
32.4375
32.375
32.3125
32.3125
32.1875
32.0625
31.9375
31.625
31.3125
30.9375
30.625
30.3125
29.9375
29.625
29.3125
29.0
28.6875
28.4375
28.1875
28.0
27.9375
29.375
38.3125
63.125
98.5625
125.125
133.3125
132.0
126.8125
116.1875
102.0
88.5
77.5625
68.375
60.25
53.5
48.5
45.4375
44.375
44.8125
45.625
46.375
46.9375
47.1875
46.9375
46.3125
45.4375
44.375
43.3125
42.25
41.1875
40.125
39.125
38.125
37.25
36.5
35.8125
35.125
34.625
34.125
33.6875
33.3125
32.9375
32.5625
32.1875
31.9375
31.6875
31.4375
31.125
30.875
30.625
30.375
30.0
29.625
29.375
29.125
28.875
28.625
28.375
28.125
27.875
27.625
27.4375
27.1875
27.0
26.8125
26.6875
26.5
26.3125
26.0625
25.875
25.75
25.625
25.4375
25.3125
25.125
24.9375
24.8125
24.6875
24.5625
24.4375
24.3125
24.375
26.0
36.125
64.3125
105.0625
133.25
138.1875
133.5625
126.4375
115.25
100.5
85.6875
72.9375
62.9375
55.25
49.4375
45.1875
42.5625
41.875
42.75
44.125
45.1875
45.875
46.25
46.125
45.4375
44.5
43.375
42.3125
41.3125
40.1875
39.125
38.0
37.0
36.0625
35.3125
34.6875
34.0625
33.5
33.0
32.5
32.125
31.75
31.375
31.125
30.9375
30.625
30.3125
30.0625
29.875
29.5625
29.25
28.9375
28.625
28.3125
28.0
27.75
27.4375
27.1875
26.9375
26.6875
26.5
26.375
26.1875
25.9375
25.75
25.625
26.5625
33.9375
56.0
89.0625
114.9375
123.625
122.25
116.875
107.8125
95.3125
81.875
70.1875
61.0
53.75
48.0
43.625
41.25
41.0
42.1875
43.5
44.3125
44.6875
44.75
44.5
43.875
43.0625
42.125
41.1875
40.25
39.3125
38.4375
37.5
36.625
35.8125
35.1875
34.75
34.375
33.9375
33.6875
33.4375
33.25
33.0625
33.0
32.8125
32.5625
32.375
32.125
31.8125
31.5
31.125
30.75
30.375
30.0625
29.75
29.5
29.1875
28.875
28.5625
28.3125
28.125
27.9375
27.6875
27.4375
27.1875
27.0
26.75
26.5625
26.375
26.1875
26.0625
25.875
25.75
26.75
34.25
57.125
93.3125
123.625
134.3125
132.5
127.1875
119.0625
107.25
93.1875
79.75
69.125
60.875
54.0625
48.6875
44.875
43.0625
43.1875
44.0625
45.0
45.6875
46.1875
46.1875
45.8125
45.0625
44.125
43.25
42.1875
41.125
40.0625
39.0625
38.125
37.25
36.375
35.625
35.0
34.5
34.0
33.5
33.0625
32.6875
32.25
31.9375
31.6875
31.4375
31.1875
30.9375
30.6875
30.4375
30.125
29.875
29.5625
29.25
28.9375
28.6875
28.4375
28.125
27.9375
27.8125
27.5
27.3125
28.25
35.25
56.75
90.0625
117.625
128.0
127.8125
124.1875
116.75
105.4375
92.5
80.3125
70.125
61.8125
54.8125
48.9375
44.75
42.75
42.6875
43.4375
44.3125
45.0
45.4375
45.5
45.1875
44.5
43.6875
42.75
41.6875
40.625
39.5625
38.5
37.5
36.6875
35.8125
35.0625
34.375
33.6875
33.1875
32.6875
32.1875
31.75
31.5
31.25
30.9375
30.625
30.3125
30.0625
29.75
29.5
29.25
28.9375
28.6875
28.3125
28.0625
27.75
27.5
27.1875
26.9375
26.8125
26.625
26.4375
26.1875
25.9375
25.75
25.5625
25.375
25.25
26.0625
32.9375
55.3125
90.4375
117.625
125.4375
123.75
118.75
107.875
92.5625
78.25
67.6875
59.6875
53.1875
47.8125
43.9375
41.5
40.875
41.6875
43.0
43.8125
44.25
44.375
44.25
43.75
43.0
42.0625
41.0625
40.0625
39.125
38.125
37.125
36.125
35.375
34.625
33.9375
33.375
32.9375
32.5625
32.25
32.0
31.875
31.75
31.625
31.625
31.5625
31.5
31.5
31.5
31.375
31.125
31.1875
33.25
43.3125
67.3125
98.3125
119.9375
126.0625
123.9375
118.9375
110.625
98.9375
86.3125
75.0
65.875
58.3125
51.9375
46.9375
44.0
43.1875
43.75
44.5
45.1875
45.8125
46.1875
46.0625
45.5
44.6875
43.75
42.75
41.6875
40.6875
39.6875
38.6875
37.75
36.875
36.125
35.4375
34.8125
34.3125
33.875
33.4375
33.0
32.625
32.25
32.0625
31.75
31.5625
31.25
31.0
30.6875
30.375
30.0625
29.875
29.5625
29.25
29.0
28.8125
28.625
28.375
28.125
28.4375
33.25
52.6875
89.625
124.875
139.6875
139.3125
134.5
126.375
114.0625
99.5625
85.5
73.4375
64.0625
56.8125
51.125
46.9375
44.75
44.5
45.1875
46.125
46.8125
47.125
47.125
46.6875
46.0
45.1875
44.1875
43.125
42.0625
40.9375
39.9375
39.0
38.125
37.25
36.4375
35.8125
35.25
34.75
34.1875
33.6875
33.3125
33.0
32.6875
32.4375
32.125
31.8125
31.5
31.1875
30.875
30.625
30.375
30.125
29.8125
29.5
29.125
28.8125
28.5625
28.25
27.9375
27.75
28.6875
36.25
60.25
96.875
124.5625
133.4375
132.375
127.0
116.625
102.6875
88.0625
75.25
65.3125
57.5
51.4375
46.75
43.875
43.1875
44.0
45.0625
45.75
46.25
46.3125
46.0
45.25
44.375
43.4375
42.4375
41.375
40.25
39.1875
38.1875
37.25
36.4375
35.6875
34.9375
34.3125
33.8125
33.3125
32.875
32.4375
32.0625
31.75
31.5
31.25
31.0
30.75
30.5
30.1875
29.9375
29.5625
29.1875
28.9375
28.6875
28.5
28.25
28.0
27.75
27.5
27.3125
27.0625
26.875
26.6875
26.4375
26.25
26.0625
25.9375
25.75
25.5625
25.375
25.1875
25.0625
24.9375
24.8125
24.6875
24.5625
24.4375
24.9375
30.3125
51.5625
89.875
123.0
133.4375
129.75
121.625
108.9375
92.8125
77.8125
66.5625
58.5625
52.375
47.75
44.625
42.6875
42.25
43.125
44.4375
45.5
46.0
46.0625
45.8125
45.3125
44.4375
43.4375
42.375
41.3125
40.25
39.1875
38.1875
37.375
36.5625
35.875
35.25
34.6875
34.125
33.625
33.25
32.9375
32.625
32.3125
32.0
31.75
31.375
31.0625
30.8125
30.5625
30.3125
30.125
29.8125
29.5
29.25
28.9375
28.6875
28.4375
28.1875
28.0
27.75
27.5
27.1875
27.0
26.8125
26.6875
26.5
26.375
26.25
26.0625
26.5
31.3125
49.375
83.0625
116.25
132.3125
134.625
131.6875
124.75
114.4375
102.625
90.3125
78.625
68.4375
60.25
53.6875
48.5
44.9375
43.6875
44.125
45.125
45.875
46.25
46.375
46.25
45.8125
45.0625
44.125
43.1875
42.1875
41.125
40.0
39.0
38.125
37.3125
36.5625
35.8125
35.125
34.5625
33.9375
33.5
33.0625
32.6875
32.375
32.125
31.875
31.625
31.3125
31.0
30.6875
30.375
30.125
29.9375
29.6875
29.375
29.4375
32.3125
45.6875
74.375
106.6875
124.75
127.875
124.9375
118.8125
109.0
96.5625
84.25
73.875
65.1875
57.625
51.1875
46.4375
43.75
43.125
43.5625
44.125
44.75
45.1875
45.375
45.0625
44.5
43.6875
42.75
41.75
40.75
39.6875
38.625
37.625
36.75
35.9375
35.1875
34.4375
33.8125
33.3125
32.8125
32.375
31.9375
31.5625
31.25
30.9375
30.625
30.375
30.1875
29.875
29.5625
29.25
29.0
28.625
28.375
28.1875
27.9375
27.75
27.5
27.5625
31.125
47.25
80.1875
113.5625
128.75
128.5
123.75
115.875
102.875
87.6875
74.75
65.1875
57.625
51.3125
46.3125
43.3125
42.4375
43.125
44.1875
44.9375
45.3125
45.4375
45.1875
44.5
43.625
42.625
41.5625
40.5625
39.5625
38.5
37.5625
36.625
35.75
35.0
34.3125
33.75
33.1875
32.6875
32.25
31.9375
31.6875
31.5
31.25
31.0625
31.0
30.9375
30.875
30.8125
30.75
30.625
30.5
30.3125
30.25
30.125
29.9375
29.8125
29.5
29.25
29.0625
28.875
28.5625
28.3125
28.0
27.75
27.5625
27.3125
27.4375
30.9375
46.75
80.625
117.9375
136.4375
136.0625
130.3125
122.5625
109.9375
94.1875
80.125
69.3125
60.625
53.625
48.3125
44.8125
43.1875
43.375
44.5
45.625
46.375
46.75
46.75
46.3125
45.5
44.4375
43.375
42.25
41.125
40.0625
39.0625
38.125
37.25
36.5
35.75
35.125
34.5
34.0
33.5
33.0
32.6875
32.375
32.125
31.875
31.625
31.3125
31.0
30.625
30.3125
30.0625
29.8125
29.5625
29.3125
29.0
28.75
28.4375
28.1875
27.875
27.625
27.375
27.25
27.125
26.9375
26.6875
26.5
26.25
26.0625
25.9375
25.8125
25.6875
25.5
25.375
26.75
36.0625
62.5625
100.75
128.6875
136.4375
134.0
127.875
117.3125
103.8125
90.1875
77.9375
67.5625
59.25
52.9375
48.125
45.0
43.8125
44.125
44.875
45.5
45.9375
46.0
45.6875
45.0625
44.3125
43.5
42.5
41.4375
40.375
39.25
38.25
37.3125
36.5
35.6875
35.0
34.3125
33.75
33.25
32.75
32.3125
31.875
31.5625
31.25
31.0
30.6875
30.375
30.125
29.8125
29.5
29.25
29.0
28.625
28.3125
27.9375
27.625
27.375
27.125
26.875
26.625
26.375
26.1875
26.0
25.75
25.5
25.375
25.25
25.125
24.9375
24.75
24.6875
24.5625
24.75
28.4375
44.4375
76.875
110.25
125.875
126.25
121.375
112.5
98.75
83.625
71.25
62.1875
55.0625
49.1875
44.75
41.875
40.9375
41.625
42.875
43.8125
44.4375
44.6875
44.6875
44.3125
43.6875
42.8125
41.875
40.875
39.875
39.0
38.125
37.25
36.4375
35.8125
35.3125
34.9375
34.5625
34.1875
33.8125
33.5625
33.375
33.125
32.9375
32.6875
32.375
32.0625
31.75
31.4375
31.125
30.75
30.4375
30.125
30.4375
34.5
49.875
78.6875
108.875
125.0
126.8125
123.625
118.5
110.5
99.8125
88.125
77.3125
68.4375
61.0625
54.6875
49.3125
45.9375
44.875
44.9375
45.375
45.8125
46.1875
46.1875
45.9375
45.3125
44.5
43.625
42.75
41.6875
40.6875
39.75
38.8125
37.875
37.0
36.25
35.5625
35.0
34.5
34.0625
33.625
33.1875
32.8125
32.5
32.1875
31.9375
31.5625
31.25
31.0
30.6875
30.4375
30.125
29.8125
29.5
29.25
29.0
28.75
28.5
28.25
28.125
29.5
39.25
66.8125
105.75
133.1875
139.75
135.8125
128.25
116.875
102.625
88.3125
76.4375
67.3125
59.875
53.625
48.6875
45.625
44.625
45.0625
45.9375
46.625
46.875
46.8125
46.375
45.625
44.6875
43.625
42.625
41.5625
40.5
39.4375
38.4375
37.4375
36.5625
35.75
35.0625
34.4375
33.875
33.3125
32.75
32.375
31.9375
31.625
31.3125
31.0
30.6875
30.4375
30.125
29.8125
29.5625
29.25
28.875
28.5625
28.3125
28.125
27.9375
27.6875
27.5
27.25
27.0625
26.8125
26.625
26.5
26.375
26.25
26.125
27.25
36.3125
63.3125
100.875
125.6875
131.3125
128.6875
121.8125
108.9375
92.75
78.4375
67.9375
59.6875
52.6875
47.1875
43.5625
41.875
42.125
43.5625
45.0
45.75
46.0
45.8125
45.3125
44.5625
43.625
42.6875
41.8125
40.875
39.875
39.0
38.1875
37.4375
36.8125
36.3125
35.875
35.5
35.1875
34.8125
34.5
34.25
34.0
33.6875
33.375
33.0625
32.75
32.4375
32.0625
31.625
31.25
30.9375
30.6875
30.4375
30.125
29.75
29.5
29.375
31.1875
41.9375
69.0625
104.875
128.8125
134.375
132.5625
128.4375
120.5
109.25
96.8125
84.875
74.25
65.1875
57.6875
51.4375
46.875
44.625
44.5
45.375
46.25
46.9375
47.25
47.1875
46.75
46.0625
45.1875
44.1875
43.125
42.0
40.8125
39.75
38.75
37.8125
37.0
36.25
35.625
35.0625
34.5625
34.0625
33.5625
33.125
32.8125
32.5625
32.375
32.0625
31.75
31.5
31.125
30.8125
30.4375
30.125
29.8125
29.5625
29.75
34.3125
53.125
88.0625
119.9375
132.875
132.9375
129.1875
121.5
108.5625
93.75
81.0625
70.875
62.375
55.125
49.3125
45.5625
44.125
44.3125
45.0625
45.8125
46.3125
46.5625
46.3125
45.75
44.875
43.9375
43.0
42.0
40.875
39.75
38.625
37.6875
36.875
36.125
35.3125
34.625
34.0625
33.5625
33.125
32.6875
32.3125
32.0
31.625
31.375
31.125
30.875
30.5
30.25
30.0
29.75
29.4375
29.125
28.75
28.4375
28.1875
27.9375
27.8125
27.625
27.375
27.625
33.25
55.0625
93.0
123.375
132.0
129.9375
125.4375
115.375
99.5625
83.9375
71.875
62.75
55.3125
49.5
45.4375
43.3125
43.375
44.8125
46.3125
47.25
47.75
47.75
47.5
46.75
45.8125
44.6875
43.5
42.375
41.25
40.125
39.0625
38.0625
37.1875
36.375
35.625
35.125
34.625
34.1875
33.8125
33.4375
33.125
32.75
32.5
32.25
32.0
31.6875
31.375
31.125
30.875
30.5625
30.25
29.875
29.5625
29.3125
29.0625
28.8125
28.5
28.25
28.0625
27.875
27.6875
27.4375
27.25
27.25
29.9375
43.75
76.4375
115.3125
136.9375
139.5625
135.8125
128.75
117.0
102.0
87.5
75.3125
65.5625
57.875
51.75
47.1875
44.5
43.875
44.5625
45.5625
46.3125
46.8125
46.8125
46.5
45.875
44.9375
44.0625
43.0
41.875
40.6875
39.4375
38.375
37.375
36.5
35.6875
34.9375
34.25
33.6875
33.125
32.6875
32.3125
31.9375
31.5
31.25
31.0
30.6875
30.4375
30.1875
29.875
29.5625
29.1875
28.9375
28.625
28.3125
28.0
27.75
27.5
27.3125
27.125
27.375
31.6875
49.625
83.75
115.875
129.125
129.0
124.6875
116.125
103.1875
89.3125
76.625
66.1875
57.8125
51.1875
46.25
43.125
42.1875
43.0625
44.1875
45.0
45.5
45.6875
45.625
45.25
44.625
43.8125
42.9375
42.0625
41.1875
40.25
39.3125
38.5
37.75
37.125
36.5
35.875
35.25
34.75
34.25
33.8125
33.4375
33.1875
32.875
32.625
32.25
31.9375
31.5625
31.3125
31.0625
30.75
30.375
30.125
29.75
29.5
29.125
28.8125
28.5625
28.3125
28.125
27.9375
27.75
27.4375
27.25
28.25
36.125
60.75
99.1875
129.1875
137.8125
134.625
127.6875
116.9375
103.25
89.375
76.9375
66.4375
58.0
51.625
46.875
43.9375
43.0625
43.5625
44.625
45.5625
46.1875
46.4375
46.25
45.6875
44.9375
44.0625
43.0625
42.0625
41.0
39.9375
38.8125
37.8125
36.875
36.125
35.375
34.75
34.25
33.75
33.3125
32.8125
32.4375
32.0625
31.8125
31.5625
31.375
31.125
30.8125
30.5
30.1875
29.9375
29.625
29.375
29.125
28.875
28.625
28.375
28.0625
27.75
27.5
27.3125
27.125
26.9375
26.8125
26.5625
26.375
26.125
25.9375
25.8125
25.6875
25.5
25.6875
28.6875
43.1875
75.3125
111.375
131.375
135.125
131.5625
122.0625
107.8125
92.6875
79.1875
67.8125
58.75
51.8125
46.625
43.0
41.3125
41.5625
42.875
44.125
45.125
45.75
46.0
45.75
45.0625
44.125
43.125
42.0625
40.9375
39.8125
38.6875
37.5625
36.5625
35.6875
34.8125
34.0625
33.5
32.9375
32.375
31.9375
31.5625
31.1875
30.875
30.625
30.4375
30.1875
29.8125
29.5625
29.25
29.0
28.6875
28.4375
28.0625
27.75
27.4375
27.1875
26.875
26.625
26.375
26.1875
25.9375
25.6875
25.5
25.3125
25.1875
25.5625
29.875
46.9375
79.3125
110.9375
124.5
124.375
120.375
112.0625
98.6875
84.0625
71.75
62.25
54.8125
48.6875
44.0
41.1875
40.625
41.5
42.625
43.4375
44.0625
44.3125
44.1875
43.6875
42.9375
42.0
41.0625
40.0
38.9375
37.875
36.875
35.875
35.125
34.4375
33.8125
33.3125
32.875
32.625
32.375
32.3125
32.25
32.125
32.125
32.125
32.125
32.125
32.125
32.0625
31.9375
31.6875
31.3125
30.9375
30.5625
30.25
29.875
29.625
29.375
29.0
28.6875
28.375
28.0625
27.8125
27.875
30.5
43.625
73.0625
108.6875
130.5
133.8125
129.625
122.25
110.1875
96.0625
83.0625
71.9375
62.875
55.625
50.125
46.0
43.6875
43.375
44.3125
45.25
46.0
46.5
46.625
46.3125
45.625
44.6875
43.625
42.5625
41.5625
40.5625
39.5
38.5
37.625
36.8125
36.0625
35.3125
34.75
34.1875
33.6875
33.25
32.9375
32.625
32.3125
31.9375
31.6875
31.4375
31.1875
30.9375
30.6875
30.375
30.125
29.8125
29.5
29.1875
28.9375
28.6875
28.4375
28.1875
28.0
27.8125
27.625
28.6875
36.5625
60.25
96.4375
125.4375
135.75
134.5
129.0
119.4375
106.0625
92.0
79.9375
70.0625
61.6875
54.6875
49.1875
45.5
43.9375
44.125
45.0625
45.9375
46.5625
46.8125
46.6875
46.1875
45.4375
44.5
43.4375
42.375
41.25
40.0625
39.0
38.0
37.125
36.3125
35.5625
34.875
34.3125
33.8125
33.25
32.8125
32.375
32.0
31.6875
31.4375
31.1875
30.875
30.5
30.25
30.0
29.6875
29.3125
29.0625
28.75
28.5
28.1875
27.9375
27.6875
27.4375
27.1875
27.0
27.0625
29.6875
43.4375
74.625
109.9375
128.9375
131.3125
127.4375
119.5
107.0625
92.5625
79.0625
67.875
59.0
52.0625
46.75
43.1875
41.8125
42.5625
44.125
45.3125
45.9375
46.25
46.3125
45.9375
45.1875
44.25
43.375
42.5
41.625
40.625
39.5625
38.625
37.875
37.25
36.6875
36.1875
35.8125
35.5625
35.3125
35.0625
34.875
34.6875
34.4375
34.1875
33.9375
33.625
33.25
32.875
32.5
32.0625
31.75
31.375
31.0625
30.75
31.0625
35.375
52.6875
85.6875
118.5625
134.75
136.625
133.1875
126.375
115.5625
101.8125
88.0625
76.625
67.5
60.0
53.625
49.0
46.625
46.3125
46.875
47.5
48.0625
48.4375
48.4375
48.0625
47.3125
46.4375
45.4375
44.3125
43.1875
42.125
41.125
40.0625
39.125
38.375
37.5625
36.875
36.3125
35.75
35.1875
34.75
34.4375
34.0
33.625
33.3125
33.0
32.75
32.4375
32.125
31.8125
31.5625
31.25
30.9375
30.6875
30.375
30.0625
29.8125
30.3125
35.9375
57.0625
94.875
128.6875
141.6875
141.4375
137.0
128.375
115.5
100.875
86.9375
75.4375
66.5
59.25
53.375
49.0
46.875
46.875
47.75
48.5
48.9375
49.1875
49.0
48.4375
47.625
46.625
45.5625
44.4375
43.3125
42.0625
41.0
40.0625
39.125
38.3125
37.5625
36.875
36.3125
35.6875
35.1875
34.6875
34.3125
33.9375
33.5625
33.1875
32.8125
32.4375
32.0625
31.625
31.3125
31.0
30.6875
30.375
30.125
30.1875
33.6875
50.3125
84.8125
119.5625
135.3125
136.4375
132.875
124.9375
111.6875
96.25
82.4375
71.4375
62.6875
55.625
50.0625
46.5625
45.5
46.125
47.1875
48.0
48.375
48.5
48.25
47.5
46.4375
45.25
44.125
43.0625
41.9375
40.75
39.625
38.625
37.6875
36.875
36.125
35.4375
34.875
34.375
33.9375
33.5625
33.125
32.6875
32.25
32.0
31.6875
31.375
31.0625
30.75
30.375
30.0625
29.75
29.375
29.0625
28.75
29.0
33.75
54.0
91.625
124.0625
135.5
133.875
128.3125
118.375
103.75
88.3125
75.8125
66.3125
58.75
52.5625
48.0625
45.8125
45.875
47.5
49.0625
49.9375
50.3125
50.3125
49.875
48.9375
47.75
46.4375
45.125
43.875
42.6875
41.5
40.4375
39.4375
38.5625
37.75
37.0625
36.5
36.0
35.5625
35.1875
34.8125
34.5
34.1875
33.875
33.5625
33.1875
32.875
32.625
32.3125
32.0
31.6875
31.3125
31.0
30.625
30.375
31.125
37.875
61.75
101.5
134.25
145.125
143.5
138.1875
129.125
116.4375
102.25
88.5
76.625
67.0625
59.375
53.375
49.375
47.8125
48.125
49.0625
49.875
50.3125
50.3125
49.8125
49.125
48.1875
47.0625
45.9375
44.75
43.625
42.4375
41.3125
40.3125
39.5
38.625
37.875
37.1875
36.5625
36.0625
35.5625
35.0625
34.6875
34.3125
34.0
33.75
33.4375
33.0625
32.6875
32.375
32.0625
31.8125
31.5625
31.3125
30.9375
30.625
31.5625
39.375
65.125
105.125
134.8125
142.875
140.75
135.0625
124.625
110.125
94.4375
80.6875
69.875
61.3125
54.4375
49.25
46.4375
46.1875
47.3125
48.5625
49.5
49.9375
49.8125
49.25
48.375
47.25
46.0625
44.9375
43.75
42.5
41.25
40.125
39.125
38.125
37.3125
36.5625
35.9375
35.375
34.875
34.4375
34.0
33.625
33.25
33.0
32.75
32.4375
32.125
31.8125
31.5
31.1875
30.9375
30.5625
30.25
29.875
29.875
32.75
47.8125
81.875
119.1875
137.75
138.0625
132.0625
123.1875
110.1875
94.9375
81.3125
70.5625
61.8125
54.5
48.9375
45.6875
44.875
45.8125
47.125
48.125
48.6875
48.875
48.5
47.75
46.6875
45.5
44.3125
43.1875
41.9375
40.6875
39.5
38.5
37.5625
36.75
36.0
35.25
34.5625
34.0625
33.6875
33.25
32.875
32.5625
32.25
31.9375
31.625
31.25
30.9375
30.625
30.375
30.0625
29.75
29.5
29.25
29.0625
29.375
33.5625
52.3125
89.6875
125.125
139.6875
139.0
133.0625
123.1875
108.8125
92.375
78.1875
68.0625
60.75
54.75
50.0
47.3125
47.0625
48.0625
49.0625
49.625
49.875
49.8125
49.3125
48.5
47.4375
46.1875
44.9375
43.6875
42.5
41.25
40.1875
39.25
38.375
37.625
36.9375
36.3125
35.8125
35.375
34.875
34.5
34.1875
33.875
33.5625
33.3125
33.0625
32.75
32.375
32.0625
31.75
31.4375
31.125
30.875
30.5625
30.375
30.75
36.4375
58.3125
97.4375
131.875
144.875
144.125
138.75
129.3125
116.3125
101.8125
88.125
76.5625
66.9375
59.25
53.125
49.0
47.5
47.875
48.9375
49.6875
50.0
50.0
49.75
49.0
48.0
46.875
45.6875
44.5
43.3125
42.125
41.0
39.9375
38.9375
38.125
37.375
36.75
36.1875
35.6875
35.25
34.875
34.4375
34.125
33.8125
33.5625
33.25
32.875
32.5625
32.25
31.9375
31.5625
31.3125
31.0
30.6875
30.375
30.125
30.25
34.5
53.375
90.9375
127.5625
142.5
141.125
135.1875
126.125
112.625
96.9375
82.3125
70.875
62.25
55.25
49.6875
46.3125
45.5625
46.5625
47.9375
48.875
49.375
49.3125
48.8125
48.0
46.875
45.625
44.375
43.125
41.875
40.625
39.4375
38.4375
37.5625
36.8125
36.125
35.5
34.9375
34.375
33.8125
33.375
33.0625
32.8125
32.5625
32.25
32.0
31.6875
31.375
31.0
30.625
30.3125
29.9375
29.5625
29.25
28.9375
28.6875
28.5
28.25
28.0
28.1875
33.125
53.625
91.375
124.5
136.6875
135.125
129.125
118.5
103.1875
87.25
74.4375
64.875
57.1875
50.625
45.8125
43.5
43.8125
45.4375
46.9375
47.6875
48.0
48.0625
47.75
47.0625
46.0
44.9375
43.9375
42.9375
41.9375
41.0
40.125
39.3125
38.625
38.0625
37.5625
37.0625
36.5625
36.125
35.8125
35.5
35.125
34.75
34.5
34.0625
33.625
33.1875
32.875
32.625
32.25
31.875
31.5625
31.25
30.875
30.5625
30.25
30.0
29.6875
29.375
29.1875
28.9375
28.75
28.5
29.1875
36.0625
60.0625
100.6875
134.75
145.3125
141.5
134.375
124.5
110.6875
95.4375
82.125
71.625
63.3125
56.5
51.1875
48.0625
47.3125
48.0
48.9375
49.625
49.875
49.75
49.25
48.375
47.375
46.25
45.0625
43.8125
42.5
41.375
40.3125
39.3125
38.375
37.625
37.0
36.4375
35.9375
35.4375
34.9375
34.5
34.125
33.8125
33.5
33.1875
32.9375
32.625
32.3125
31.9375
31.5625
31.25
30.9375
30.6875
30.4375
30.125
29.875
29.625
29.3125
29.0
28.8125
30.25
39.9375
67.3125
105.8125
132.3125
139.0625
137.25
131.75
121.375
107.25
92.25
79.125
68.9375
60.9375
54.3125
49.25
46.5
46.1875
47.0625
48.0625
48.75
49.0625
49.0
48.4375
47.5625
46.5
45.4375
44.1875
42.875
41.6875
40.5
39.375
38.375
37.5
36.6875
35.9375
35.4375
34.9375
34.3125
33.8125
33.3125
33.0
32.75
32.4375
32.125
31.75
31.375
30.9375
30.6875
30.4375
30.25
29.875
29.5
29.125
28.8125
28.5625
28.25
27.9375
27.75
27.5625
27.3125
27.0625
26.875
26.625
26.375
26.5
29.375
44.4375
78.625
115.625
133.3125
134.3125
129.375
118.9375
104.0625
89.125
76.8125
66.9375
58.625
52.1875
47.4375
44.5625
43.8125
44.6875
45.9375
46.8125
47.125
47.0625
46.6875
46.0
45.0
43.875
42.6875
41.5
40.3125
39.1875
38.125
37.0625
36.25
35.5625
34.875
34.3125
33.8125
33.375
33.0625
32.9375
32.875
32.75
32.6875
32.625
32.625
32.5625
32.5625
32.5
32.375
32.3125
32.1875
31.9375
31.6875
31.3125
30.9375
30.625
30.25
30.0
29.75
29.375
28.9375
28.625
28.375
28.125
27.9375
27.75
27.5625
27.375
27.1875
27.125
29.0625
40.625
70.3125
109.5
134.625
138.875
134.1875
126.6875
115.625
101.125
86.5
74.5625
65.375
58.0
51.8125
47.375
45.0625
44.9375
45.875
46.8125
47.5625
47.9375
47.9375
47.4375
46.625
45.5625
44.4375
43.25
42.0625
40.9375
39.8125
38.8125
37.875
37.0625
36.3125
35.625
35.0625
34.5625
34.125
33.6875
33.3125
32.9375
32.5625
32.3125
32.0625
31.8125
31.5
31.125
30.8125
30.5625
30.25
30.0
29.625
29.3125
29.0625
28.875
28.5625
28.1875
27.9375
27.75
27.625
27.375
27.125
27.6875
33.125
52.4375
86.4375
118.0625
132.125
132.75
128.0
119.5625
107.6875
94.125
81.125
70.375
62.0625
55.4375
49.9375
46.0625
44.4375
44.6875
45.5
46.125
46.625
46.875
46.625
46.0
45.0625
44.0
42.875
41.8125
40.6875
39.5625
38.4375
37.4375
36.5625
35.8125
35.0625
34.375
33.875
33.3125
32.875
32.375
32.0
31.625
31.375
31.0625
30.6875
30.4375
30.1875
29.9375
29.625
29.25
28.9375
28.625
28.3125
28.0
27.6875
27.4375
27.125
26.875
26.625
26.4375
26.1875
25.9375
25.6875
25.5
25.375
25.1875
25.0
24.8125
24.625
24.4375
24.25
24.1875
24.0
23.875
23.75
23.625
23.375
23.25
23.125
23.0625
24.1875
32.5
58.125
96.4375
123.75
128.75
122.875
113.625
100.1875
84.625
71.125
61.125
53.75
48.125
44.0
41.375
40.3125
41.0
42.625
44.0625
44.9375
45.25
45.25
44.9375
44.25
43.5
42.5625
41.6875
40.875
40.0625
39.3125
38.5
37.625
36.8125
36.0625
35.4375
34.875
34.375
33.9375
33.4375
33.0
32.625
32.25
32.0
31.625
31.3125
31.0625
30.8125
30.5625
30.1875
29.9375
29.6875
29.4375
29.125
28.75
28.5
28.25
28.0
27.8125
27.5
27.1875
26.9375
26.6875
26.5625
26.375
26.1875
26.0
25.875
25.75
25.5
25.3125
25.125
25.0
24.875
24.6875
24.5625
24.4375
24.25
24.0625
24.3125
27.75
42.5
73.5
108.9375
128.5625
131.125
128.0625
122.3125
113.375
102.0625
89.4375
77.625
67.875
59.9375
53.4375
48.3125
44.875
43.375
43.625
44.4375
45.25
45.8125
46.125
46.0
45.5
44.625
43.5625
42.5
41.5
40.4375
39.375
38.4375
37.5
36.625
35.875
35.1875
34.5
33.875
33.3125
32.9375
32.625
32.25
31.9375
31.625
31.3125
31.0625
30.75
30.4375
30.1875
30.0
29.6875
29.3125
29.0
28.6875
28.375
28.125
27.8125
27.4375
27.125
26.8125
26.5
26.1875
25.9375
25.75
25.5
25.3125
25.1875
24.9375
24.6875
24.5
24.3125
24.1875
24.0625
23.875
23.8125
23.6875
23.5625
24.8125
33.3125
57.0
90.9375
115.9375
123.625
123.0625
118.375
108.5625
96.0
83.8125
72.875
63.5
56.0
50.1875
45.6875
42.375
41.0
41.5
42.6875
43.5625
44.0625
44.375
44.3125
43.8125
42.9375
42.0625
41.125
40.1875
39.25
38.25
37.25
36.25
35.3125
34.5625
33.8125
33.1875
32.625
32.125
31.6875
31.3125
30.8125
30.4375
30.125
29.875
29.5
29.1875
28.9375
28.625
28.25
27.9375
27.5625
27.125
26.8125
26.5
26.125
25.75
25.4375
25.1875
24.9375
24.75
24.5625
24.375
24.1875
24.875
31.125
51.5
83.375
109.25
118.75
118.8125
115.75
108.125
96.0
82.8125
71.5
62.5625
55.4375
49.6875
45.3125
42.5625
41.6875
42.375
43.5
44.375
44.875
45.0625
44.9375
44.5
43.6875
42.625
41.5625
40.5625
39.5625
38.5625
37.625
36.75
35.875
35.125
34.4375
33.9375
33.4375
33.0
32.5625
32.125
31.75
31.4375
31.125
30.875
30.625
30.375
30.0625
29.8125
29.625
29.3125
28.9375
28.625
28.375
28.25
28.0625
27.75
27.4375
27.125
26.9375
26.75
26.5
26.3125
26.125
26.0
25.8125
25.625
25.4375
25.25
25.0625
24.875
24.75
24.625
24.5
24.375
24.1875
24.0
23.875
23.75
23.6875
23.625
23.5
23.375
23.1875
23.0625
22.9375
22.875
22.8125
22.625
22.8125
25.4375
38.25
68.1875
105.5625
129.125
133.0625
128.375
120.8125
110.9375
99.0625
86.5
75.0
65.1875
57.1875
51.0
46.4375
43.25
41.75
42.0
43.125
44.25
45.0
45.375
45.375
44.9375
44.125
43.0625
42.0
41.0
40.125
39.125
38.1875
37.3125
36.4375
35.6875
34.9375
34.3125
33.75
33.25
32.9375
32.5625
32.125
31.8125
31.5
31.25
31.0625
30.8125
30.5625
30.25
30.0
29.6875
29.375
29.0625
28.8125
28.5625
28.375
28.1875
27.875
27.4375
27.1875
26.9375
26.75
26.5
26.1875
25.875
25.625
25.375
25.125
24.875
24.6875
24.5
24.4375
24.3125
24.125
24.0625
24.8125
30.9375
50.875
83.5625
111.8125
122.9375
123.125
119.9375
113.1875
102.75
90.625
79.1875
69.3125
60.9375
53.9375
48.375
44.25
42.0
41.6875
42.6875
43.6875
44.25
44.5
44.5625
44.25
43.6875
42.8125
41.9375
41.0
40.0625
39.125
38.125
37.1875
36.25
35.375
34.625
34.0
33.375
32.8125
32.25
31.6875
31.25
30.875
30.5625
30.25
30.0625
29.6875
29.4375
29.125
28.875
28.625
28.3125
28.0
27.75
27.5
27.25
27.0625
26.875
26.625
26.375
26.3125
26.25
26.0625
25.8125
25.625
25.625
25.6875
25.75
25.8125
26.0
26.1875
26.375
26.5
26.6875
26.9375
27.25
27.4375
27.5625
27.5625
27.5
27.375
27.1875
27.0
27.0
29.0
39.75
65.3125
98.375
120.9375
126.625
123.875
116.1875
103.4375
88.8125
76.25
66.75
59.125
52.9375
48.375
45.25
43.25
42.5625
43.1875
44.1875
44.875
45.25
45.3125
45.1875
44.6875
44.0
43.0625
42.125
41.125
40.125
39.1875
38.375
37.5625
36.8125
36.125
35.4375
34.8125
34.25
33.75
33.375
33.0625
32.8125
32.5
32.25
32.0
31.625
31.3125
31.0625
30.8125
30.625
30.5
30.1875
29.875
29.5625
29.3125
29.0625
28.8125
28.5625
28.375
28.1875
28.0
27.8125
27.5625
27.3125
27.125
27.0625
27.25
30.5
44.375
73.0
106.0625
126.125
130.4375
128.6875
125.3125
119.0
109.5
98.4375
87.3125
77.4375
68.75
61.25
54.8125
49.6875
46.5
45.4375
45.625
46.3125
46.875
47.25
47.3125
47.0625
46.375
45.5625
44.625
43.75
42.8125
41.875
40.875
39.875
38.9375
38.0
37.125
36.3125
35.625
34.9375
34.4375
33.9375
33.5
33.0625
32.6875
32.3125
32.0
31.6875
31.4375
31.25
31.0
30.6875
30.375
30.0625
29.75
29.4375
29.0625
28.8125
28.5625
28.25
28.0625
27.8125
27.5
27.25
27.0625
26.875
26.6875
26.5
26.3125
26.0625
25.875
25.75
25.625
25.4375
25.8125
30.875
50.0625
84.6875
116.1875
128.625
128.625
125.4375
117.75
104.6875
90.375
78.125
68.125
59.8125
53.375
48.75
45.25
42.9375
42.4375
43.5
44.875
45.625
45.875
45.8125
45.5625
44.9375
44.0
42.9375
41.875
40.875
39.8125
38.875
37.9375
37.1875
36.4375
35.875
35.375
34.875
34.5
34.25
34.0625
33.9375
33.875
33.75
33.6875
33.625
33.5
33.4375
33.3125
33.1875
32.875
32.5
32.125
31.8125
31.4375
31.125
30.8125
30.625
30.375
30.0
29.6875
29.4375
29.25
29.1875
31.0625
41.6875
68.0625
102.375
126.5
134.25
133.5
129.25
121.1875
109.875
97.5625
85.8125
75.125
66.1875
59.1875
53.5
49.0
46.25
45.5625
46.125
46.875
47.375
47.75
47.8125
47.5625
46.875
45.9375
44.875
43.875
42.875
41.875
40.875
39.875
39.0625
38.3125
37.5625
36.8125
36.1875
35.625
35.125
34.6875
34.25
33.9375
33.625
33.375
33.0625
32.75
32.5
32.1875
31.9375
31.625
31.3125
31.0
30.6875
30.4375
30.125
29.875
29.625
29.4375
29.25
29.0
28.75
28.5
28.3125
28.125
27.9375
27.8125
28.6875
35.75
58.875
96.6875
128.25
139.0
137.3125
132.3125
124.5
113.5625
100.875
88.5
77.375
68.0
60.375
54.3125
49.625
46.5
45.5
46.1875
47.125
47.8125
48.125
48.0625
47.625
46.75
45.6875
44.625
43.625
42.625
41.5625
40.5625
39.625
38.75
37.9375
37.0625
36.3125
35.5625
35.0
34.5625
34.0625
33.6875
33.25
32.875
32.5625
32.25
31.9375
31.625
31.4375
31.1875
30.875
30.5
30.1875
29.8125
29.4375
29.1875
28.9375
28.75
28.5
28.25
28.0625
27.8125
27.5625
27.3125
27.1875
27.0
26.75
26.5625
26.375
26.1875
25.9375
25.8125
25.5625
25.4375
25.3125
25.1875
25.0625
24.875
24.75
24.6875
24.5625
24.75
28.625
46.0
81.3125
116.3125
131.0625
130.5625
125.6875
116.9375
103.125
87.375
74.125
64.8125
57.875
52.5
48.4375
45.8125
44.5625
44.75
45.9375
47.0
47.625
47.875
47.75
47.3125
46.5625
45.5625
44.375
43.25
42.1875
41.0625
40.0625
39.125
38.25
37.4375
36.8125
36.1875
35.625
35.0625
34.625
34.3125
33.9375
33.5625
33.25
32.9375
32.6875
32.4375
32.125
31.875
31.625
31.375
31.0625
30.75
30.4375
30.125
29.8125
29.5625
29.375
29.1875
28.9375
28.6875
28.5
28.1875
28.0
27.8125
27.625
27.4375
27.3125
27.1875
27.0
26.8125
26.875
29.5
42.5625
72.375
108.8125
131.875
137.4375
135.3125
130.4375
123.1875
113.4375
102.0625
89.8125
78.375
69.0625
61.625
55.4375
50.4375
47.4375
46.6875
47.25
47.9375
48.375
48.5625
48.5625
48.1875
47.4375
46.5625
45.5625
44.5625
43.4375
42.3125
41.3125
40.3125
39.375
38.5
37.75
37.0625
36.4375
35.8125
35.25
34.75
34.375
34.125
33.8125
33.5
33.1875
32.875
32.5625
32.25
31.9375
31.6875
31.375
31.125
30.8125
30.5
30.125
29.75
29.5625
29.3125
28.9375
28.625
28.375
28.1875
27.9375
27.5625
27.25
27.0
26.75
26.625
26.4375
26.25
26.0625
25.875
25.75
25.8125
28.0
40.25
70.125
106.9375
129.5625
134.4375
132.625
127.1875
116.75
103.3125
90.125
78.5625
68.8125
60.8125
54.3125
49.375
45.875
44.125
44.4375
45.6875
46.75
47.25
47.5
47.375
46.8125
45.9375
44.9375
43.875
42.75
41.625
40.5
39.5
38.5
37.5625
36.75
36.0
35.3125
34.6875
34.0625
33.5625
33.1875
32.8125
32.5
32.1875
31.9375
31.625
31.3125
31.0625
30.8125
30.5
30.1875
29.9375
29.6875
29.4375
29.1875
28.9375
28.75
28.75
28.75
28.8125
29.8125
36.625
57.5625
90.1875
116.9375
127.1875
127.3125
123.5625
115.9375
103.625
89.5
77.1875
67.75
60.25
54.0
49.0625
45.6875
44.3125
44.75
45.9375
47.0
47.5
47.75
47.6875
47.1875
46.375
45.25
44.125
42.9375
41.875
40.875
39.8125
38.875
38.0625
37.25
36.5625
36.0
35.5
34.9375
34.5
34.125
33.875
33.5
33.125
32.875
32.625
32.3125
32.0625
31.75
31.4375
31.125
30.875
30.625
30.3125
30.0
29.75
29.5
29.375
29.125
29.0625
31.1875
43.25
72.75
109.625
132.625
137.9375
136.25
131.875
123.0
110.4375
97.375
85.625
75.4375
66.75
59.3125
53.125
48.6875
46.5
46.375
47.3125
48.3125
48.875
49.125
48.9375
48.375
47.5
46.4375
45.375
44.25
43.1875
42.0625
40.875
39.875
38.875
38.0625
37.375
36.75
36.125
35.625
35.1875
34.6875
34.25
33.9375
33.6875
33.4375
33.1875
32.9375
32.6875
32.3125
32.0
31.625
31.25
31.0
30.6875
30.5
30.25
29.9375
29.6875
29.375
29.125
28.9375
28.6875
28.5625
29.25
35.4375
57.5
95.625
128.625
140.375
138.3125
132.75
123.875
110.8125
96.0625
82.5625
71.8125
63.5
56.875
51.375
47.3125
45.375
45.4375
46.5
47.5
48.1875
48.5
48.3125
47.75
46.9375
45.9375
44.8125
43.6875
42.5625
41.4375
40.3125
39.25
38.25
37.3125
36.5
35.8125
35.25
34.6875
34.25
33.875
33.4375
33.125
32.75
32.5
32.1875
31.9375
31.625
31.375
31.125
30.8125
30.5
30.125
29.75
29.4375
29.1875
29.0
28.75
28.5
28.3125
28.0625
27.875
27.625
27.4375
27.25
27.375
30.5625
46.25
80.0
115.4375
132.1875
132.9375
128.75
120.5
106.8125
91.0
77.6875
67.875
59.875
53.25
48.125
44.75
43.3125
43.9375
45.5
46.875
47.5625
47.8125
47.6875
47.1875
46.375
45.25
44.125
43.0625
42.0625
41.0625
40.125
39.3125
38.5625
37.9375
37.4375
37.0
36.6875
36.3125
36.0
35.75
35.5625
35.1875
34.875
34.5625
34.25
33.9375
33.5625
33.1875
32.9375
32.625
32.25
31.875
31.4375
31.0625
30.8125
30.5625
30.3125
30.0625
29.8125
29.5625
29.3125
29.0625
28.875
29.6875
36.8125
60.3125
98.875
130.9375
142.5
141.875
137.3125
129.0625
117.3125
104.5625
92.3125
80.9375
71.125
63.125
56.5625
51.375
48.125
47.1875
47.875
48.9375
49.6875
50.0
50.0
49.5
48.6875
47.5625
46.4375
45.125
43.875
42.6875
41.625
40.625
39.6875
38.875
38.1875
37.5
36.875
36.25
35.75
35.25
34.9375
34.625
34.3125
34.0625
33.75
33.375
33.0
32.6875
32.4375
32.1875
31.875
31.5625
31.3125
31.0
30.625
30.25
30.0625
29.75
29.5625
29.375
29.1875
29.0
28.625
28.375
28.125
28.0
27.875
27.6875
27.5
27.375
27.25
27.125
28.5625
38.5625
67.0625
108.0625
137.375
144.75
141.0
133.75
122.8125
109.125
95.1875
82.6875
72.5
64.3125
57.625
52.3125
48.5
46.8125
47.0
47.9375
48.6875
49.0625
49.125
48.875
48.1875
47.1875
46.0625
44.9375
43.8125
42.625
41.4375
40.3125
39.3125
38.375
37.5625
36.875
36.25
35.625
35.125
34.5625
34.125
33.625
33.3125
33.0625
32.8125
32.5
32.1875
31.75
31.5
31.1875
30.875
30.5
30.25
29.875
29.625
29.25
28.9375
28.625
28.3125
28.0625
27.875
27.75
27.5
27.375
27.125
26.9375
26.6875
26.5
26.3125
26.1875
26.0
25.75
25.5
25.375
25.1875
25.0625
24.9375
24.75
24.5625
24.4375
24.375
24.25
24.125
24.5
29.625
49.8125
87.0
120.1875
132.0
129.625
123.3125
112.9375
98.125
82.6875
70.3125
61.3125
54.625
49.625
46.0625
44.0625
43.8125
45.125
46.8125
48.0625
48.6875
48.875
48.625
48.125
47.3125
46.25
45.0625
43.9375
42.75
41.625
40.5
39.5
38.5
37.75
37.0
36.5
35.9375
35.3125
34.8125
34.5
34.1875
33.875
33.625
33.375
33.1875
32.9375
32.625
32.375
32.0625
31.6875
31.3125
31.0625
30.75
30.4375
30.0625
29.75
29.5
29.25
29.0
28.875
28.625
28.375
28.25
28.0
27.875
28.1875
32.5625
49.4375
81.9375
115.75
133.8125
137.0625
134.8125
129.125
120.1875
109.75
99.4375
89.0
78.6875
69.4375
61.9375
55.75
50.875
48.0625
47.375
47.8125
48.5625
49.0625
49.3125
49.0625
48.5
47.6875
46.6875
45.625
44.4375
43.25
42.125
41.125
40.1875
39.3125
38.5
37.6875
36.9375
36.375
35.75
35.25
34.8125
34.4375
34.1875
33.875
33.5625
33.1875
32.8125
32.5
32.25
31.9375
31.625
31.375
31.0625
30.75
30.375
30.0625
29.75
29.5625
29.3125
29.0625
28.875
28.625
28.375
28.1875
27.9375
27.8125
28.75
36.625
60.5625
97.25
126.375
136.3125
135.5625
131.1875
122.6875
110.25
97.0
85.0
74.4375
65.5
58.3125
52.625
48.3125
45.875
45.5625
46.5
47.4375
48.125
48.375
48.3125
47.75
46.8125
45.75
44.5625
43.4375
42.1875
40.9375
39.9375
39.0
38.125
37.25
36.4375
35.75
35.125
34.5
34.0
33.5
33.1875
32.9375
32.625
32.3125
31.875
31.5625
31.3125
31.0625
30.8125
30.5
30.1875
29.8125
29.5
29.125
28.8125
28.5
28.3125
28.0625
28.0625
30.25
42.125
70.5
104.75
125.375
129.4375
126.4375
120.3125
110.4375
97.375
83.8125
72.25
63.375
56.375
50.5
46.1875
44.1875
44.5
45.75
46.75
47.3125
47.5625
47.5
47.0
46.0625
44.9375
43.8125
42.625
41.5
40.375
39.3125
38.3125
37.375
36.5625
35.875
35.25
34.6875
34.1875
33.875
33.6875
33.5
33.375
33.25
33.1875
33.1875
33.125
33.125
33.125
33.0625
33.0
32.8125
32.625
32.375
32.125
31.8125
31.5625
31.3125
30.9375
30.625
30.3125
30.0
29.75
29.875
33.75
50.625
85.0
121.125
138.5625
139.375
135.3125
128.125
116.0
100.875
86.5
75.125
66.4375
59.5625
53.8125
49.4375
46.8125
46.375
47.25
48.25
49.0
49.4375
49.4375
48.9375
48.1875
47.125
45.9375
44.6875
43.5
42.25
41.25
40.1875
39.25
38.375
37.625
36.9375
36.375
35.875
35.4375
35.0
34.6875
34.375
34.0625
33.75
33.4375
33.125
32.8125
32.5625
32.25
32.0
31.625
31.3125
30.9375
30.625
30.3125
30.125
29.9375
29.6875
29.4375
29.1875
28.875
28.625
28.4375
28.3125
28.1875
28.0
28.0
29.875
41.1875
71.1875
111.3125
137.3125
142.875
139.875
133.6875
123.8125
111.1875
98.125
86.0625
75.5
66.4375
58.875
52.9375
48.8125
46.9375
47.0
47.9375
48.6875
49.1875
49.1875
48.9375
48.25
47.3125
46.1875
45.0625
43.9375
42.8125
41.625
40.5625
39.5625
38.5625
37.6875
36.9375
36.25
35.6875
35.125
34.6875
34.25
33.875
33.5625
33.1875
32.8125
32.5
32.25
32.0
31.6875
31.4375
31.0625
30.6875
30.375
30.0625
29.75
29.5
29.25
29.0
28.875
28.5625
28.3125
28.0
27.8125
27.5625
27.4375
27.1875
27.0625
26.9375
26.75
26.625
26.5
26.3125
26.9375
33.0
55.125
93.0625
125.0625
136.0625
134.375
128.75
119.0
105.25
90.4375
77.625
67.4375
59.25
52.6875
47.8125
44.6875
43.4375
44.3125
46.0625
47.375
47.875
48.0
48.0
47.625
46.875
45.875
44.8125
43.75
42.8125
41.875
40.9375
40.125
39.375
38.75
38.1875
37.625
37.0625
36.5625
36.125
35.6875
35.375
35.0
34.6875
34.3125
34.0
33.6875
33.3125
33.0
32.75
32.4375
32.125
31.8125
31.4375
31.0625
30.8125
30.5
30.25
30.0625
29.8125
29.5625
29.25
29.0
28.75
28.625
28.375
28.1875
28.0625
27.9375
27.75
27.5
27.3125
27.8125
32.6875
51.625
87.375
122.9375
140.0
141.0625
136.5
129.875
120.4375
108.6875
96.5
84.3125
73.375
64.5625
57.8125
52.4375
48.625
47.0625
47.375
48.375
49.125
49.5625
49.625
49.4375
48.9375
48.0
46.9375
45.8125
44.5625
43.375
42.125
40.9375
39.9375
38.9375
38.1875
37.5
36.875
36.25
35.75
35.25
34.875
34.5625
34.3125
34.0625
33.8125
33.5
33.125
32.75
32.4375
32.125
31.8125
31.5625
31.3125
31.0
30.625
30.3125
30.0
29.75
29.5
29.3125
29.125
28.9375
28.625
28.375
28.125
28.0
27.8125
27.625
27.5
27.375
27.125
26.875
26.625
26.375
26.1875
26.0
25.8125
25.625
25.3125
25.0625
24.875
24.6875
24.5625
24.4375
24.3125
24.1875
24.0625
23.9375
23.875
23.75
23.625
23.9375
27.8125
44.5
78.6875
114.6875
132.75
135.4375
132.375
124.8125
112.5625
97.9375
84.0625
72.5625
63.5625
56.4375
50.875
46.75
44.3125
43.875
44.9375
46.125
46.9375
47.375
47.5
47.125
46.3125
45.1875
44.0625
43.0
41.875
40.8125
39.8125
38.875
37.8125
36.9375
36.1875
35.5
34.8125
34.125
33.625
33.25
32.875
32.625
32.3125
32.0
31.6875
31.375
31.0625
30.75
30.4375
30.1875
29.9375
29.5625
29.25
28.9375
28.8125
30.1875
38.75
61.5
92.0
114.375
122.5
122.1875
118.5
112.3125
103.625
93.375
82.625
72.625
64.0625
56.9375
51.125
47.0
45.3125
45.625
46.6875
47.4375
47.8125
48.0625
48.0625
47.5625
46.6875
45.5625
44.5625
43.4375
42.25
41.125
40.0625
39.0625
38.25
37.5
36.8125
36.25
35.6875
35.125
34.625
34.25
33.875
33.5625
33.1875
32.9375
32.6875
32.375
32.0625
31.6875
31.4375
31.125
30.8125
30.5
30.3125
31.0625
37.375
58.875
94.875
125.5
135.9375
134.5625
131.0625
124.75
114.4375
102.25
90.3125
79.625
70.375
62.6875
56.0625
50.8125
47.6875
46.8125
47.25
47.9375
48.4375
48.5625
48.3125
47.8125
47.0
46.0
44.9375
43.875
42.8125
41.8125
40.8125
39.8125
38.875
38.0625
37.3125
36.6875
36.125
35.5625
35.125
34.625
34.1875
33.8125
33.4375
33.125
32.875
32.6875
32.375
32.0625
31.6875
31.3125
31.0
30.625
30.3125
30.0
29.625
29.3125
28.9375
28.625
28.3125
28.0625
27.75
27.5
27.3125
27.0625
26.875
26.625
26.375
26.0625
26.0
27.75
39.5
71.3125
112.0625
136.4375
141.125
137.625
130.0
118.375
103.9375
89.5625
77.5625
68.125
60.5
54.4375
49.8125
46.9375
46.0625
46.75
47.6875
48.3125
48.4375
48.1875
47.6875
46.875
45.8125
44.625
43.5
42.375
41.25
40.25
39.25
38.3125
37.375
36.625
35.9375
35.375
34.75
34.25
33.75
33.3125
32.875
32.5625
32.25
31.875
31.625
31.3125
31.0625
30.75
30.4375
30.125
29.75
29.5
29.25
28.9375
28.625
28.375
28.1875
28.125
28.0
27.6875
27.375
27.3125
27.3125
27.3125
27.25
27.3125
27.4375
27.5
27.5625
27.5625
27.6875
27.8125
27.9375
28.125
28.1875
28.0625
27.9375
28.4375
33.0625
51.3125
86.6875
121.6875
136.3125
134.875
128.5625
118.4375
103.6875
87.625
74.5625
65.1875
57.9375
52.0625
47.75
45.0
43.9375
44.4375
45.75
46.875
47.4375
47.5625
47.3125
46.75
45.9375
44.9375
43.75
42.5625
41.4375
40.375
39.4375
38.5
37.6875
36.875
36.1875
35.625
35.0625
34.625
34.125
33.75
33.375
33.125
32.875
32.5625
32.25
32.0
31.6875
31.375
31.125
30.8125
30.5625
30.25
30.0
29.75
29.4375
29.1875
28.875
28.625
28.375
28.1875
28.0
27.75
27.5625
27.375
27.125
26.875
26.6875
26.625
26.5
26.3125
26.25
27.4375
35.375
59.0625
95.75
126.0
137.0625
136.1875
131.8125
125.3125
116.1875
104.9375
92.5625
80.5
69.9375
61.5625
54.9375
49.75
46.3125
45.0625
45.625
46.5625
47.3125
47.5625
47.5625
47.1875
46.5
45.625
44.625
43.5625
42.5
41.375
40.1875
39.0625
38.125
37.25
36.4375
35.75
35.125
34.625
34.0625
33.5625
33.125
32.75
32.375
32.0625
31.8125
31.5625
31.3125
31.0625
30.8125
30.4375
30.0625
29.75
29.4375
29.125
28.875
28.5625
28.25
27.9375
27.6875
27.4375
27.125
26.75
26.5625
26.4375
26.3125
26.0625
25.8125
25.875
28.9375
43.4375
74.6875
108.5625
125.8125
128.125
126.5625
122.0625
112.0
98.0
84.0
72.4375
63.4375
56.1875
50.3125
45.9375
43.375
43.0
44.0
45.125
45.875
46.1875
46.1875
45.875
45.1875
44.25
43.25
42.125
41.125
40.125
39.125
38.125
37.3125
36.625
36.125
35.625
35.1875
34.8125
34.5
34.25
34.125
34.0
33.8125
33.625
33.5
33.3125
32.9375
32.5625
32.1875
31.8125
31.5
31.125
30.75
30.4375
30.125
29.8125
29.5
29.3125
29.0625
29.6875
35.625
55.5625
89.0
119.0
132.625
134.0
130.6875
124.25
114.5625
102.875
90.9375
79.75
69.75
61.4375
54.75
49.5625
46.1875
45.0625
45.4375
46.25
46.9375
47.375
47.5625
47.3125
46.6875
45.6875
44.6875
43.6875
42.5625
41.4375
40.375
39.3125
38.4375
37.625
36.8125
36.0625
35.375
34.75
34.25
33.8125
33.5
33.1875
32.875
32.5625
32.25
31.9375
31.5625
31.3125
31.0
30.75
30.5
30.25
29.875
29.5
29.25
29.0
28.75
28.5625
29.25
35.625
57.5
93.9375
125.25
137.125
136.0625
130.9375
122.75
111.375
98.25
85.1875
73.875
64.875
57.625
51.625
47.125
44.6875
44.4375
45.3125
46.25
46.8125
47.1875
47.1875
46.6875
45.875
44.75
43.6875
42.625
41.5
40.4375
39.3125
38.3125
37.375
36.4375
35.6875
34.9375
34.3125
33.75
33.25
32.75
32.375
32.0625
31.75
31.375
31.0625
30.75
30.5
30.1875
29.9375
29.5625
29.25
28.9375
28.75
28.4375
28.0625
27.8125
27.5625
27.375
27.125
26.875
26.6875
27.9375
37.0625
63.9375
101.375
126.375
132.0
129.6875
124.5
114.3125
99.4375
84.375
72.4375
63.3125
55.75
49.6875
45.375
43.1875
43.125
44.25
45.5
46.25
46.625
46.5625
46.0
45.0625
44.0
42.875
41.75
40.6875
39.625
38.5
37.4375
36.375
35.5625
34.8125
34.25
33.75
33.25
32.75
32.375
32.0625
31.875
31.6875
31.5
31.375
31.375
31.375
31.3125
31.1875
31.125
31.0
30.875
30.875
30.8125
30.6875
30.5625
30.3125
30.0625
29.8125
29.625
29.375
29.125
29.375
33.8125
51.8125
86.6875
121.625
137.4375
137.0
131.25
122.0625
108.8125
94.1875
81.4375
71.3125
62.9375
55.9375
50.5
46.75
44.9375
44.9375
45.8125
46.6875
47.1875
47.375
47.375
46.875
46.125
45.0625
43.9375
42.8125
41.75
40.6875
39.5625
38.5625
37.6875
36.9375
36.1875
35.4375
34.8125
34.3125
33.875
33.5625
33.1875
32.875
32.5625
32.3125
32.0
31.75
31.4375
31.1875
30.9375
30.625
30.3125
30.0
29.625
29.3125
29.0625
28.9375
28.6875
28.4375
28.1875
27.9375
27.75
27.5
28.1875
34.5
56.625
94.3125
127.0625
139.0625
138.0
133.5
125.625
113.6875
100.1875
87.6875
77.0
67.8125
59.9375
53.5625
48.875
46.375
45.9375
46.5
47.25
47.75
48.0
47.8125
47.375
46.5625
45.6875
44.625
43.5625
42.4375
41.3125
40.1875
39.25
38.375
37.5
36.625
35.8125
35.125
34.5
33.9375
33.375
32.9375
32.6875
32.3125
32.0625
31.75
31.4375
31.0
30.6875
30.4375
30.1875
29.875
29.5625
29.1875
28.9375
28.625
28.3125
28.0
27.6875
27.5
27.3125
27.0625
26.8125
26.5
26.25
26.0625
25.875
25.6875
25.5625
25.375
25.5
28.375
43.125
76.625
113.875
132.8125
134.25
129.1875
119.8125
106.4375
91.625
78.0625
66.9375
58.4375
52.0625
47.1875
44.0
42.75
43.5
44.875
45.875
46.375
46.5625
46.375
45.75
44.875
43.75
42.625
41.5625
40.4375
39.3125
38.1875
37.1875
36.25
35.5
34.8125
34.1875
33.6875
33.1875
32.75
32.375
32.125
31.9375
31.75
31.625
31.5
31.4375
31.4375
31.4375
31.3125
31.1875
31.0625
30.9375
30.8125
30.625
30.5
30.25
30.0625
29.8125
29.625
29.3125
29.0
28.75
28.5
28.25
28.0
27.75
27.5625
27.3125
27.0625
26.8125
26.625
27.1875
32.6875
52.5625
88.3125
122.125
136.4375
136.375
131.5
122.0625
108.25
93.6875
81.3125
71.0625
62.4375
55.4375
50.125
46.1875
44.0625
43.75
44.6875
45.8125
46.5625
46.9375
47.0
46.5625
45.75
44.75
43.625
42.5625
41.5
40.4375
39.375
38.375
37.375
36.5625
35.875
35.1875
34.5625
34.0625
33.625
33.25
32.875
32.5625
32.1875
31.875
31.625
31.375
31.125
30.875
30.5625
30.25
29.9375
29.625
29.3125
29.0625
28.75
28.4375
28.1875
28.0
27.75
27.5625
27.3125
27.0
26.75
26.5625
26.375
26.25
26.125
25.875
25.75
25.5625
25.375
25.5
28.375
42.0625
72.875
109.75
131.5
135.0625
131.3125
123.9375
113.375
100.9375
87.9375
76.0
65.9375
58.0
51.8125
47.0625
43.8125
42.75
43.375
44.5
45.3125
45.875
46.0625
45.8125
45.125
44.1875
43.0625
41.9375
40.8125
39.6875
38.5625
37.625
36.6875
35.8125
35.0625
34.3125
33.625
33.0625
32.5625
32.125
31.6875
31.375
31.0625
30.8125
30.5625
30.3125
29.9375
29.6875
29.4375
29.1875
28.8125
28.5
28.1875
27.9375
28.8125
35.5
56.25
87.5
111.75
119.9375
119.0
115.1875
108.25
97.5
84.5625
72.75
63.75
56.5
50.125
44.875
41.8125
41.4375
42.4375
43.4375
44.1875
44.75
45.125
45.0625
44.5625
43.8125
42.9375
42.125
41.25
40.3125
39.375
38.375
37.5
36.75
36.0625
35.4375
34.875
34.3125
33.8125
33.375
33.0
32.5625
32.1875
31.875
31.6875
31.4375
31.125
30.8125
30.5625
30.25
29.9375
29.5625
29.3125
29.0625
28.75
28.4375
28.1875
27.9375
27.625
27.375
27.125
26.9375
26.75
26.5625
26.375
26.125
25.9375
25.75
25.625
25.625
27.875
40.75
72.1875
111.1875
134.3125
137.75
132.6875
123.375
110.5625
96.1875
82.625
71.3125
62.375
55.125
49.5625
45.5
43.1875
42.8125
43.8125
44.9375
45.75
46.125
46.1875
45.875
45.1875
44.1875
43.0625
42.0
40.9375
39.875
38.8125
37.8125
36.9375
36.125
35.375
34.6875
34.125
33.625
33.1875
32.75
32.375
32.125
31.75
31.375
31.125
30.875
30.625
30.4375
30.125
29.8125
29.5
29.1875
28.875
28.625
28.4375
28.1875
27.875
27.625
27.375
27.125
26.875
26.6875
26.5
26.3125
26.1875
25.9375
25.75
25.5
25.25
25.0625
24.875
24.6875
24.5
24.25
23.9375
23.6875
23.5
23.375
23.1875
23.0625
22.875
22.75
22.5625
22.375
22.3125
22.25
22.125
22.0625
21.9375
21.875
21.6875
22.0
25.9375
42.6875
76.75
111.9375
127.8125
127.6875
122.375
113.375
100.0
84.8125
71.5625
61.8125
54.3125
48.3125
43.8125
40.8125
39.5
39.8125
41.25
42.625
43.5
43.875
43.9375
43.625
42.875
41.9375
40.875
39.875
38.875
38.0
37.0625
36.125
35.25
34.4375
33.6875
33.125
32.625
32.125
31.625
31.125
30.8125
30.5625
30.25
29.9375
29.625
29.3125
29.0625
28.8125
28.5625
28.25
27.9375
27.6875
27.4375
27.125
26.75
26.4375
26.25
26.0
25.75
25.625
25.4375
25.25
25.0625
24.875
24.75
24.75
24.75
24.75
24.8125
24.9375
25.0
25.0625
25.4375
28.6875
42.1875
69.9375
100.875
118.625
121.875
118.75
111.5625
99.6875
85.6875
73.625
64.5
57.0
50.5625
45.625
42.375
40.8125
40.875
41.9375
43.0
43.6875
44.0
44.0
43.8125
43.3125
42.5625
41.625
40.5625
39.5
38.4375
37.5
36.6875
35.875
35.0625
34.375
33.8125
33.25
32.75
32.25
31.875
31.5625
31.3125
31.0
30.75
30.5
30.25
30.0
29.75
29.4375
29.1875
28.875
28.625
28.375
28.125
27.8125
27.5625
27.3125
27.0625
26.8125
26.625
26.5
26.25
26.0625
25.875
25.6875
25.5
26.0625
31.25
49.4375
81.875
113.125
127.75
129.625
127.125
121.4375
113.3125
103.5625
92.25
80.8125
70.8125
62.4375
55.4375
49.8125
45.8125
43.9375
43.875
44.5625
45.1875
45.6875
45.75
45.5625
45.0625
44.25
43.3125
42.375
41.375
40.25
39.1875
38.1875
37.1875
36.25
35.5
34.75
34.125
33.5
33.0
32.5
32.0
31.5625
31.3125
31.0625
30.75
30.4375
30.125
29.75
29.5
29.1875
28.9375
28.6875
28.375
28.0625
27.75
27.4375
27.125
26.875
26.625
26.375
26.25
26.0625
25.8125
25.5625
25.3125
25.1875
25.0625
24.9375
25.0
27.625
40.875
70.625
104.25
122.375
125.125
122.6875
116.625
104.5
89.5625
76.6875
67.0
59.25
52.8125
47.75
44.125
42.1875
41.9375
42.8125
43.75
44.3125
44.625
44.625
44.25
43.625
42.75
41.875
41.0
40.0
39.125
38.3125
37.4375
36.6875
36.0
35.5
35.0625
34.6875
34.375
34.125
33.875
33.6875
33.5
33.3125
33.0625
32.8125
32.625
32.375
32.0625
31.6875
31.375
31.0
30.625
30.25
29.9375
29.6875
29.375
29.125
28.8125
28.5625
28.3125
28.125
27.875
28.25
32.75
49.875
82.125
114.25
129.5625
131.4375
129.0625
123.0625
113.3125
101.8125
89.6875
78.0625
68.1875
60.125
53.75
48.6875
45.5625
44.5625
45.0625
45.875
46.5
46.9375
47.0625
46.8125
46.125
45.25
44.3125
43.3125
42.375
41.3125
40.3125
39.25
38.3125
37.4375
36.6875
35.9375
35.3125
34.8125
34.25
33.875
33.5625
33.1875
32.8125
32.5
32.25
31.9375
31.625
31.375
31.125
30.8125
30.5
30.25
30.0
29.75
29.4375
29.125
28.8125
28.5625
28.4375
28.3125
28.0
27.75
28.125
32.8125
51.125
85.625
119.5625
134.8125
135.0
130.25
122.375
111.4375
99.125
87.125
76.4375
67.25
59.5625
53.3125
48.5
45.4375
44.5
44.9375
45.875
46.4375
46.75
46.75
46.4375
45.6875
44.75
43.8125
42.8125
41.6875
40.5
39.4375
38.4375
37.5625
36.6875
35.9375
35.25
34.6875
34.125
33.5625
33.0625
32.625
32.25
31.875
31.6875
31.4375
31.125
30.75
30.4375
30.1875
29.875
29.625
29.375
29.0625
28.75
28.5
28.25
28.0
27.75
27.5
27.375
27.25
27.125
28.5625
38.5
65.6875
101.0625
122.6875
127.25
125.625
120.5625
110.0625
95.5
81.5625
70.625
62.125
55.1875
49.6875
45.75
43.625
43.5625
44.625
45.6875
46.4375
46.8125
46.875
46.6875
46.125
45.4375
44.5625
43.625
42.6875
41.75
40.8125
39.875
38.9375
38.0
37.25
36.625
36.0
35.4375
34.9375
34.5
34.0625
33.6875
33.3125
33.0
32.75
32.4375
32.1875
31.9375
31.6875
31.3125
31.0
30.6875
30.375
30.0625
29.75
29.5
29.3125
29.0
28.75
28.5
28.3125
28.375
31.1875
45.375
77.0625
113.125
133.0625
137.0
135.5625
130.875
121.9375
109.5
96.0625
83.8125
73.5
65.0625
58.0
52.3125
48.4375
46.8125
46.875
47.375
47.875
48.1875
48.3125
48.0625
47.5
46.625
45.6875
44.6875
43.625
42.5625
41.4375
40.5
39.5625
38.75
37.9375
37.1875
36.5
35.8125
35.25
34.8125
34.5
34.125
33.75
33.3125
32.9375
32.5625
32.1875
31.8125
31.5
31.125
30.8125
30.4375
30.0625
29.6875
29.3125
29.0
28.6875
28.5
28.25
28.0
27.75
27.5
27.1875
26.9375
26.75
26.625
26.5
26.3125
26.125
26.3125
29.6875
46.125
81.1875
117.375
134.375
136.3125
132.8125
124.5625
111.625
96.6875
82.9375
71.875
63.1875
56.25
50.6875
46.5625
44.3125
44.125
45.375
46.625
47.25
47.5
47.4375
46.875
46.0
44.9375
43.875
42.8125
41.75
40.6875
39.6875
38.625
37.625
36.6875
35.9375
35.4375
34.875
34.3125
33.8125
33.25
32.8125
32.5
32.1875
31.875
31.625
31.4375
31.25
30.9375
30.625
30.3125
30.0
29.8125
29.625
29.5625
29.5
29.4375
29.3125
29.3125
29.375
29.3125
29.375
29.4375
29.4375
29.4375
29.375
29.3125
29.1875
29.0
28.875
29.625
36.25
57.8125
92.875
122.625
134.6875
134.8125
130.25
120.9375
107.0625
92.4375
79.75
69.5625
61.5
55.25
50.5
47.3125
46.125
46.4375
47.25
47.8125
48.125
48.1875
47.9375
47.375
46.5
45.4375
44.3125
43.1875
42.0625
41.0625
40.0625
39.1875
38.375
37.625
36.9375
36.25
35.6875
35.125
34.6875
34.25
33.9375
33.6875
33.3125
33.0
32.6875
32.4375
32.0625
31.75
31.5
31.1875
30.875
30.5625
30.25
30.0
29.75
29.5
29.25
29.125
30.6875
40.4375
66.8125
103.125
128.1875
134.375
133.125
131.0
124.8125
113.5625
100.875
89.4375
79.125
69.625
61.625
55.25
50.375
47.625
46.875
47.25
47.8125
48.125
48.125
47.9375
47.4375
46.6875
45.8125
44.875
43.875
42.875
41.8125
40.8125
39.875
39.0
38.125
37.375
36.6875
36.0
35.4375
34.875
34.4375
34.0625
33.6875
33.3125
32.9375
32.5625
32.1875
31.875
31.5625
31.1875
30.75
30.3125
30.0
29.6875
29.375
29.0625
28.75
28.5
28.1875
28.0
27.8125
27.5
27.1875
26.9375
26.75
26.625
26.4375
26.1875
26.0625
27.8125
39.125
69.5
109.0
132.6875
136.125
132.5
126.25
115.5625
101.4375
86.9375
74.625
65.25
58.0
52.125
47.5625
44.875
44.4375
45.4375
46.5625
47.1875
47.375
47.25
46.75
46.0
45.0625
44.0
42.9375
41.8125
40.75
39.625
38.625
37.625
36.75
36.0
35.25
34.5625
34.0625
33.5625
33.125
32.6875
32.25
31.9375
31.5625
31.25
31.0
30.75
30.4375
30.125
29.8125
29.4375
29.125
28.8125
28.5
28.25
28.0
27.75
27.5
27.25
27.0625
26.9375
26.875
26.875
26.875
26.9375
27.0
27.125
27.3125
27.5
27.625
28.0625
30.5625
42.75
71.9375
108.0
129.6875
133.3125
129.875
122.75
110.125
94.125
79.625
68.9375
61.0
54.625
49.625
46.0625
44.1875
44.1875
45.25
46.3125
46.875
47.125
47.0625
46.75
46.0625
45.125
44.0
42.9375
41.875
40.8125
39.8125
38.875
38.0625
37.3125
36.625
35.875
35.25
34.6875
34.25
33.875
33.5
33.1875
32.875
32.5625
32.3125
32.0
31.75
31.5
31.25
31.0
30.6875
30.3125
30.0625
29.8125
29.5
29.1875
28.875
28.6875
28.5
28.25
28.0
27.75
27.5625
27.4375
27.25
27.0
26.9375
27.9375
35.0625
57.6875
94.125
125.375
138.1875
138.5
134.625
127.6875
117.75
106.3125
94.6875
83.375
73.3125
64.6875
57.4375
51.625
47.8125
46.375
46.625
47.4375
48.125
48.375
48.3125
48.0
47.3125
46.4375
45.5625
44.5625
43.4375
42.3125
41.125
40.125
39.1875
38.3125
37.5
36.8125
36.125
35.5
35.0
34.5625
34.0625
33.6875
33.375
33.0625
32.75
32.375
32.0
31.625
31.25
30.875
30.4375
30.0625
29.75
29.4375
29.0625
28.75
28.5
28.1875
27.9375
27.6875
27.5
27.25
27.0
26.8125
26.5625
26.3125
26.125
25.9375
25.6875
25.5625
25.375
25.1875
24.9375
24.8125
24.625
24.5
24.375
24.1875
24.0
23.875
23.6875
23.5
23.3125
23.25
23.125
23.0
22.875
22.8125
22.75
22.875
25.75
40.75
74.75
112.4375
130.6875
131.6875
128.125
120.1875
106.5
90.875
77.3125
66.75
58.5625
52.3125
47.625
44.25
42.5
42.5625
43.875
45.125
45.75
45.9375
45.9375
45.5
44.75
43.8125
42.75
41.75
40.75
39.6875
38.6875
37.625
36.625
35.75
35.0625
34.5625
34.0625
33.625
33.3125
33.0625
32.875
32.8125
32.6875
32.625
32.625
32.625
32.625
32.5
32.3125
32.0625
31.75
31.4375
31.0625
30.6875
30.375
30.0
29.6875
29.375
29.0
28.6875
28.4375
28.1875
28.0
27.8125
27.5625
27.3125
27.125
26.875
26.6875
26.875
29.9375
43.5
72.6875
107.125
127.8125
131.5625
129.4375
124.9375
116.125
104.6875
93.25
82.375
72.5
64.1875
57.3125
51.5625
47.4375
45.4375
45.25
45.75
46.25
46.6875
46.875
46.75
46.25
45.4375
44.5
43.5
42.4375
41.375
40.3125
39.3125
38.375
37.5625
36.75
36.0
35.25
34.625
34.125
33.6875
33.3125
32.9375
32.6875
32.375
32.0625
31.75
31.375
31.125
30.875
30.5625
30.3125
30.0
29.6875
29.3125
29.0625
28.75
28.5
28.25
28.0
27.75
27.5625
27.25
27.0625
26.8125
26.625
26.5
26.3125
26.4375
29.0
41.5
70.4375
105.5625
126.9375
131.4375
128.9375
123.25
114.5
103.3125
90.9375
79.0625
69.0625
61.0
54.4375
49.0
45.125
43.4375
43.5625
44.375
45.125
45.625
45.8125
45.625
45.125
44.4375
43.5625
42.5625
41.5625
40.5
39.4375
38.375
37.375
36.4375
35.5625
34.8125
34.125
33.5625
33.0625
32.5625
32.125
31.6875
31.375
31.0625
30.75
30.375
30.125
29.875
29.625
29.3125
29.0
28.625
28.3125
28.0625
27.75
27.4375
27.1875
27.0
26.75
26.5625
26.3125
26.0625
25.8125
25.6875
25.5
25.375
25.1875
24.9375
24.8125
24.625
24.4375
24.25
24.125
23.9375
23.8125
23.625
23.4375
23.3125
23.25
23.0625
23.0
22.875
22.8125
22.75
22.625
22.5625
22.5
22.75
26.3125
42.375
75.1875
108.375
123.8125
125.125
120.625
110.4375
96.25
82.0
70.1875
60.875
53.5625
48.125
44.4375
42.0
40.8125
41.0625
42.375
43.9375
44.8125
45.1875
45.1875
44.875
44.1875
43.25
42.1875
41.0625
39.9375
38.875
37.875
37.0625
36.1875
35.375
34.6875
34.125
33.5625
33.0625
32.5625
32.25
31.875
31.625
31.3125
31.0625
30.8125
30.5
30.25
30.0625
29.75
29.4375
29.1875
29.0
28.6875
28.3125
28.0
27.75
27.5625
27.3125
27.0625
26.8125
26.625
26.4375
26.1875
26.0
25.875
25.6875
25.625
26.5625
33.3125
53.5625
86.1875
115.0
127.125
127.5
124.5
119.125
111.125
101.125
90.3125
79.4375
69.625
61.5
54.8125
49.125
45.0625
43.1875
43.3125
44.125
44.9375
45.5
45.75
45.75
45.3125
44.5625
43.6875
42.75
41.75
40.625
39.625
38.625
37.625
36.6875
35.8125
35.0625
34.4375
33.9375
33.4375
33.0
32.625
32.1875
31.875
31.5625
31.25
31.0
30.75
30.5625
30.3125
29.9375
29.625
29.25
28.9375
28.75
28.5
28.25
28.0625
27.75
27.5625
27.1875
27.0
26.75
26.5625
26.375
26.25
26.0625
25.9375
25.6875
25.5625
25.5625
27.875
40.125
69.0625
105.1875
127.5625
131.375
128.25
122.3125
112.375
99.1875
85.5625
74.0
64.875
57.5625
51.5
46.875
43.625
42.1875
42.375
43.375
44.125
44.5625
44.8125
44.75
44.1875
43.375
42.4375
41.4375
40.375
39.3125
38.25
37.25
36.375
35.5625
34.8125
34.0625
33.5
32.875
32.3125
31.75
31.3125
31.0
30.6875
30.375
30.125
29.875
29.5625
29.25
28.9375
28.625
28.375
28.1875
27.875
27.5625
27.25
27.0
26.6875
26.5
26.3125
26.1875
26.9375
33.375
54.0
86.125
111.625
120.5625
120.3125
116.8125
108.9375
96.6875
83.3125
71.9375
63.25
56.1875
50.1875
45.4375
42.5
41.6875
42.25
43.0
43.4375
43.8125
43.875
43.75
43.3125
42.5625
41.625
40.625
39.625
38.75
37.6875
36.75
35.8125
35.0
34.25
33.5625
33.0
32.5
32.0625
31.75
31.5625
31.4375
31.3125
31.25
31.1875
31.25
31.25
31.25
31.3125
31.3125
31.25
31.0625
30.75
30.5
30.25
30.0
29.6875
29.5
29.25
28.9375
28.5625
28.25
28.5
33.0625
51.125
84.875
118.3125
133.375
133.3125
128.625
121.375
109.9375
96.0625
82.9375
71.9375
63.125
56.1875
50.875
46.8125
44.125
43.4375
44.0625
44.9375
45.5625
46.0
46.25
46.0
45.4375
44.5625
43.5625
42.5
41.5
40.4375
39.4375
38.4375
37.5625
36.8125
36.0
35.3125
34.75
34.125
33.625
33.1875
32.8125
32.5
32.25
32.0
31.75
31.4375
31.0625
30.75
30.5
30.25
30.0
29.75
29.5
29.1875
28.9375
28.6875
28.5625
30.5625
42.0625
70.6875
106.5
128.6875
134.25
132.6875
126.4375
115.75
104.1875
92.8125
81.6875
71.5625
63.3125
56.6875
51.1875
47.0
44.9375
44.875
45.5625
46.1875
46.625
46.875
46.75
46.25
45.4375
44.5
43.5625
42.4375
41.3125
40.1875
39.1875
38.1875
37.3125
36.5625
35.8125
35.0625
34.375
33.8125
33.25
32.75
32.4375
32.125
31.75
31.4375
31.125
30.75
30.4375
30.125
29.8125
29.5625
29.25
29.0
28.625
28.3125
27.9375
27.6875
27.4375
27.125
26.9375
26.75
26.5
26.25
26.0625
25.8125
25.6875
25.4375
25.3125
25.125
25.0
24.8125
24.625
24.4375
24.3125
24.125
24.0625
23.9375
23.875
23.625
23.4375
23.3125
23.1875
23.0625
23.0625
22.9375
22.8125
22.75
24.1875
35.0625
66.0
106.8125
129.8125
131.0625
125.25
116.0625
101.5625
85.0
71.3125
61.6875
54.625
49.1875
45.375
42.9375
41.4375
41.25
42.625
44.5
45.75
46.3125
46.4375
46.375
45.9375
45.1875
44.1875
43.1875
42.25
41.375
40.375
39.4375
38.4375
37.5625
36.8125
36.125
35.5625
35.0
34.5
34.0625
33.625
33.3125
32.9375
32.6875
32.375
32.125
31.875
31.625
31.3125
31.125
30.8125
30.5
30.1875
29.875
29.5625
29.3125
29.0625
28.8125
28.5
28.25
28.0625
27.875
27.6875
27.5
27.3125
27.125
26.9375
26.9375
30.0
43.75
73.875
109.5
131.3125
136.25
134.4375
129.625
121.1875
110.5
99.625
88.9375
78.3125
68.5
60.5
54.125
49.375
46.6875
46.1875
46.8125
47.5
48.0
48.125
48.0625
47.6875
47.0
46.0625
45.0625
44.0
42.9375
41.875
40.875
39.875
38.9375
38.125
37.375
36.75
36.125
35.4375
34.9375
34.5
34.125
33.8125
33.5
33.25
32.9375
32.5625
32.1875
31.9375
31.6875
31.4375
31.1875
30.9375
30.625
30.25
30.0
29.6875
29.375
29.125
28.9375
28.8125
28.5625
28.3125
28.0625
27.8125
27.5625
27.375
27.25
27.125
27.1875
29.625
42.25
72.8125
110.875
133.875
137.3125
133.9375
128.3125
118.3125
104.6875
91.1875
79.6875
70.125
61.9375
55.1875
50.0625
46.5625
45.1875
45.5
46.5
47.25
47.75
47.875
47.625
47.0625
46.125
45.0625
44.0
42.875
41.75
40.6875
39.6875
38.75
37.875
37.0
36.25
35.625
35.125
34.625
34.0625
33.625
33.125
32.75
32.5
32.1875
31.9375
31.625
31.25
31.0
30.75
30.4375
30.0625
29.6875
29.4375
29.1875
28.875
28.625
28.375
28.0625
27.8125
27.5625
27.3125
27.125
27.0
26.8125
26.625
26.4375
26.25
26.0625
26.125
29.0625
43.75
75.6875
110.6875
128.5625
130.375
127.25
120.5625
108.25
93.1875
80.0
69.75
61.25
54.125
48.6875
45.0
43.4375
43.875
45.25
46.3125
46.8125
46.875
46.875
46.625
45.9375
45.0625
44.1875
43.25
42.375
41.5
40.6875
39.875
39.125
38.5
38.0625
37.5625
37.1875
36.75
36.5
36.125
35.6875
35.3125
35.0
34.6875
34.3125
33.9375
33.5625
33.1875
32.8125
32.4375
32.0625
31.6875
31.375
31.0
30.6875
30.375
30.125
29.8125
29.5625
29.3125
29.0625
28.875
28.625
28.4375
28.5
31.5625
45.9375
77.3125
113.4375
134.375
138.875
136.625
131.0
121.875
110.25
97.9375
86.25
75.9375
67.125
59.625
53.4375
49.0
46.8125
46.625
47.3125
47.9375
48.375
48.5625
48.5
48.0
47.25
46.3125
45.1875
44.0625
43.0
41.875
40.875
39.9375
39.0
38.1875
37.4375
36.6875
36.125
35.5625
35.0625
34.6875
34.3125
34.0
33.625
33.25
32.9375
32.625
32.375
32.125
31.8125
31.5
31.125
30.8125
30.5625
30.25
29.9375
29.6875
29.4375
29.25
29.0
28.75
28.5
28.3125
28.5
31.875
47.4375
80.5625
116.125
134.0625
137.0
135.4375
129.8125
119.375
106.5
93.5625
81.5625
71.25
62.75
55.75
50.25
46.625
45.375
45.8125
46.6875
47.3125
47.625
47.75
47.5
46.8125
45.9375
44.875
43.8125
42.6875
41.5625
40.5625
39.5625
38.5625
37.625
36.875
36.125
35.375
34.6875
34.125
33.6875
33.3125
33.0
32.6875
32.375
32.0
31.625
31.375
31.0625
30.8125
30.5
30.1875
29.875
29.5625
29.1875
28.875
28.625
28.375
28.1875
28.0
27.75
27.5625
27.3125
27.0625
26.875
26.6875
27.0
32.0625
52.125
88.1875
119.8125
131.5625
130.625
125.375
115.1875
100.8125
86.25
74.4375
65.25
57.625
51.5625
47.125
44.4375
43.6875
44.5
45.875
46.875
47.375
47.75
47.75
47.4375
46.6875
45.75
44.6875
43.6875
42.625
41.6875
40.75
39.75
38.8125
38.0
37.1875
36.5
35.9375
35.4375
34.9375
34.4375
34.0625
33.8125
33.5
33.1875
32.875
32.5625
32.3125
32.0625
31.8125
31.5
31.1875
30.8125
30.5
30.1875
29.875
29.5625
29.3125
29.0625
28.875
28.6875
28.375
28.3125
30.125
40.9375
69.5625
108.5
135.5
142.0625
138.9375
133.1875
125.0
114.375
102.375
90.1875
78.9375
69.25
61.375
55.0
50.0
47.0625
46.5
47.125
47.9375
48.4375
48.625
48.5
48.125
47.375
46.4375
45.375
44.3125
43.1875
42.0
40.75
39.75
38.875
38.0
37.25
36.5625
36.0
35.4375
34.9375
34.5
34.125
33.8125
33.5625
33.25
33.0
32.625
32.3125
32.0
31.6875
31.375
31.0625
30.75
30.5
30.1875
29.8125
29.5
29.25
29.0
28.75
28.5625
28.375
28.1875
27.9375
27.6875
28.0625
33.0625
52.9375
90.5
125.625
138.8125
137.5625
132.8125
124.6875
112.4375
98.1875
85.0
74.0
64.9375
57.625
51.875
47.5
44.875
44.375
45.3125
46.4375
47.25
47.625
47.625
47.1875
46.375
45.375
44.3125
43.125
42.0
40.8125
39.625
38.625
37.6875
36.875
36.125
35.375
34.8125
34.3125
33.8125
33.3125
32.9375
32.5625
32.25
32.0625
31.75
31.375
31.125
30.875
30.5625
30.1875
29.8125
29.5
29.1875
28.9375
28.5625
28.25
27.9375
27.9375
30.6875
45.0
76.375
110.25
127.4375
129.875
127.0625
120.25
108.625
94.375
80.875
70.25
61.875
54.875
49.125
45.0625
43.3125
43.875
45.25
46.375
47.0
47.4375
47.625
47.4375
46.875
46.0
45.0
44.0
42.9375
41.8125
40.75
39.75
38.75
37.8125
37.0625
36.4375
35.875
35.3125
34.75
34.3125
33.9375
33.6875
33.375
33.0625
32.75
32.4375
32.1875
31.8125
31.4375
31.1875
30.875
30.625
30.3125
30.0
29.6875
29.375
29.0625
28.8125
28.625
29.125
34.4375
54.75
91.625
125.5
139.375
138.9375
134.0
125.375
112.9375
98.6875
85.1875
74.0625
65.1875
57.8125
51.875
47.4375
45.25
45.125
46.0625
47.0
47.75
48.125
48.125
47.625
46.875
45.875
44.75
43.625
42.4375
41.3125
40.25
39.25
38.3125
37.4375
36.625
35.9375
35.3125
34.8125
34.375
33.875
33.5625
33.25
33.0
32.6875
32.375
32.125
31.8125
31.5
31.25
31.0
30.6875
30.25
29.9375
29.6875
29.375
29.125
28.875
28.6875
28.4375
28.1875
27.9375
27.75
27.5625
27.375
29.1875
40.3125
70.3125
110.625
136.3125
140.8125
137.0
129.6875
117.5
101.9375
87.0625
75.0625
65.6875
58.1875
52.25
47.75
45.1875
44.6875
45.5
46.5625
47.3125
47.625
47.625
47.1875
46.4375
45.4375
44.3125
43.125
41.9375
40.8125
39.6875
38.6875
37.6875
36.875
36.125
35.4375
34.75
34.0625
33.5625
33.125
32.8125
32.4375
32.125
31.8125
31.5
31.25
30.9375
30.625
30.375
30.0625
29.75
29.375
29.0625
28.6875
28.375
28.0625
27.875
27.6875
27.5625
27.375
27.0625
26.875
28.3125
38.0
65.5625
103.25
127.5
132.0625
128.1875
120.875
109.1875
94.375
79.9375
68.5625
60.0
53.375
48.0
44.0625
42.3125
42.8125
44.3125
45.5
46.1875
46.5625
46.625
46.3125
45.625
44.75
43.6875
42.625
41.5625
40.625
39.6875
38.8125
38.0
37.3125
36.8125
36.3125
35.75
35.25
34.8125
34.375
34.0625
33.75
33.375
33.0625
32.8125
32.5
32.125
31.75
31.4375
31.1875
30.875
30.5625
30.3125
30.0
29.6875
29.375
29.0625
28.8125
28.5625
28.4375
29.4375
37.375
62.0
100.0
130.0
139.8125
137.6875
131.3125
122.0625
110.125
96.75
83.5625
72.1875
63.375
56.4375
50.9375
47.0
45.375
45.5625
46.375
47.125
47.625
47.8125
47.625
47.125
46.25
45.1875
44.0625
42.9375
41.875
40.75
39.75
38.8125
37.9375
37.125
36.375
35.625
34.9375
34.4375
33.9375
33.5625
33.1875
32.875
32.5625
32.3125
32.0625
31.75
31.4375
31.1875
30.875
30.5625
30.25
29.875
29.625
29.375
29.0625
28.8125
28.5625
28.375
28.6875
33.3125
52.0
87.875
122.8125
137.25
136.125
130.8125
122.25
109.5625
95.4375
82.75
72.125
63.0
55.375
49.5625
45.75
44.125
44.375
45.375
46.4375
47.125
47.375
47.125
46.5625
45.6875
44.625
43.5
42.4375
41.3125
40.1875
39.0625
38.0
37.0
36.0625
35.25
34.625
34.0625
33.5625
33.125
32.75
32.375
32.0625
31.75
31.4375
31.1875
30.9375
30.6875
30.375
30.125
29.8125
29.5
29.1875
28.875
28.8125
30.8125
42.875
72.1875
107.4375
127.9375
131.0
127.625
121.5625
110.875
96.5
82.375
71.1875
62.4375
55.125
49.0625
44.875
43.1875
43.625
44.75
45.625
46.125
46.375
46.25
45.8125
45.0625
44.125
43.0
41.875
40.75
39.5625
38.375
37.3125
36.5
35.75
35.0
34.25
33.5625
32.9375
32.4375
32.125
31.875
31.5625
31.3125
31.0625
30.75
30.5
30.3125
30.0625
29.8125
29.625
29.4375
29.3125
29.25
29.125
29.0
28.9375
29.125
31.8125
45.375
77.3125
114.5625
134.8125
137.0
132.25
123.8125
110.25
93.875
79.25
68.5
60.4375
53.9375
48.875
45.5
44.1875
44.6875
45.75
46.625
47.1875
47.375
47.3125
46.8125
46.0
44.9375
43.8125
42.625
41.5625
40.5
39.4375
38.4375
37.5
36.75
36.0
35.375
34.6875
34.1875
33.75
33.4375
33.0625
32.75
32.4375
32.125
31.8125
31.5
31.25
31.0
30.75
30.5
30.1875
29.875
29.9375
33.25
49.0625
82.75
118.5
135.8125
137.4375
134.4375
127.6875
115.75
101.4375
88.125
76.9375
67.625
59.8125
53.3125
48.625
46.375
46.125
46.6875
47.3125
47.875
48.125
47.9375
47.375
46.5625
45.625
44.5625
43.5
42.375
41.1875
40.1875
39.1875
38.25
37.3125
36.5625
35.9375
35.375
34.875
34.375
33.875
33.5625
33.1875
32.875
32.5625
32.25
32.0
31.75
31.375
30.9375
30.625
30.375
30.125
29.8125
29.5625
29.3125
29.0
28.75
28.5
28.6875
32.625
50.9375
89.1875
127.5625
142.5625
140.0
133.0
122.625
107.9375
92.1875
79.0625
68.8125
60.375
53.4375
48.1875
44.9375
43.875
44.4375
45.625
46.625
47.25
47.5
47.1875
46.5
45.5625
44.4375
43.3125
42.125
40.9375
39.8125
38.6875
37.6875
36.75
36.0
35.25
34.5
33.9375
33.4375
32.9375
32.5
32.125
31.8125
31.5625
31.3125
31.0
30.75
30.4375
30.125
29.75
29.4375
29.1875
28.9375
28.625
28.25
27.875
27.625
27.375
27.1875
26.9375
26.75
26.5
26.3125
26.125
25.9375
25.8125
25.5625
25.4375
25.3125
25.375
28.1875
43.4375
78.625
116.5625
133.75
133.4375
127.125
115.9375
99.875
83.0625
69.5625
60.1875
53.1875
47.8125
43.875
41.6875
41.5625
42.9375
44.625
45.75
46.4375
46.875
46.875
46.4375
45.6875
44.6875
43.625
42.5625
41.5
40.4375
39.4375
38.4375
37.5
36.625
35.875
35.1875
34.625
34.1875
33.75
33.375
33.0625
32.6875
32.4375
32.1875
31.9375
31.6875
31.375
31.0625
30.8125
30.5625
30.25
29.8125
29.5
29.1875
28.9375
28.6875
28.4375
28.1875
27.9375
27.6875
27.4375
27.1875
27.0
26.8125
26.625
26.4375
26.25
26.25
27.6875
37.25
64.625
103.9375
132.0625
139.4375
137.0
131.3125
122.0
109.1875
95.0625
81.8125
70.5
61.3125
54.1875
48.75
45.0
43.6875
44.3125
45.5625
46.625
47.25
47.4375
47.1875
46.6875
45.875
44.9375
43.8125
42.6875
41.5625
40.375
39.1875
38.1875
37.1875
36.4375
35.75
35.125
34.5625
34.0625
33.6875
33.25
32.875
32.5
32.25
32.0
31.75
31.4375
31.125
30.75
30.5
30.1875
29.8125
29.5625
29.3125
29.0625
28.75
28.5
28.25
28.0
27.75
27.5625
27.3125
27.3125
29.9375
42.9375
73.1875
109.5
130.5625
133.875
130.5
123.4375
111.5625
97.5
84.5
73.1875
63.5625
55.6875
49.5
45.125
43.0
43.0625
44.0625
45.125
45.875
46.3125
46.375
46.0625
45.3125
44.25
43.1875
42.125
41.0625
40.0
38.9375
37.8125
36.875
36.0
35.25
34.5
33.875
33.3125
32.8125
32.3125
32.0625
31.75
31.375
31.0
30.625
30.375
30.1875
29.9375
29.625
29.3125
28.9375
28.5625
28.25
28.0
27.6875
27.4375
27.125
26.875
26.6875
26.5
26.375
26.125
25.9375
27.3125
36.8125
63.25
99.25
123.5625
129.4375
126.125
118.5625
106.25
91.1875
77.0625
66.0
57.5625
50.875
45.75
42.125
40.625
41.125
42.5625
43.875
44.625
44.9375
45.0
44.8125
44.25
43.3125
42.25
41.125
40.0625
39.0625
38.0625
37.125
36.375
35.625
35.0625
34.5625
34.125
33.8125
33.625
33.5
33.375
33.1875
33.0
32.8125
32.5625
32.25
32.0
31.6875
31.375
31.0625
30.6875
30.3125
29.9375
29.5625
29.1875
28.875
28.6875
28.4375
28.1875
27.9375
27.75
27.5
27.1875
27.0625
28.0625
35.9375
60.3125
98.3125
128.4375
137.5
134.4375
128.125
118.875
106.125
91.8125
78.75
68.3125
60.0625
53.5
48.3125
44.875
43.4375
43.6875
44.5
45.25
45.875
46.1875
46.125
45.625
44.9375
44.0625
43.125
42.0625
40.9375
39.875
38.875
37.875
37.0625
36.25
35.5
34.75
34.125
33.625
33.125
32.6875
32.375
32.0625
31.8125
31.5
31.1875
30.875
30.625
30.3125
30.125
29.8125
29.5625
29.25
29.0
28.6875
28.375
28.0625
27.875
27.625
27.375
27.1875
27.0
26.6875
26.4375
26.3125
26.1875
26.0
26.0
28.5625
41.875
73.4375
112.0
133.4375
135.5
131.5
124.1875
111.75
96.6875
82.75
71.25
62.3125
55.125
49.375
45.0625
42.625
42.375
43.25
44.3125
45.125
45.6875
45.9375
45.6875
44.9375
43.9375
42.875
41.75
40.625
39.5625
38.5
37.4375
36.5
35.625
34.8125
34.0625
33.375
32.875
32.375
31.9375
31.5
31.1875
30.8125
30.5
30.25
29.9375
29.6875
29.4375
29.1875
28.9375
28.625
28.3125
28.0
27.6875
27.375
27.1875
26.875
26.625
26.4375
26.1875
26.0
25.75
25.5625
25.3125
25.125
25.0625
25.9375
33.0625
56.0
91.625
118.875
126.625
124.0
117.0625
104.8125
89.6875
76.125
65.875
57.8125
51.125
45.8125
42.0
39.875
39.8125
41.25
42.6875
43.6875
44.3125
44.6875
44.6875
44.25
43.5
42.625
41.8125
41.0625
40.1875
39.3125
38.4375
37.5625
36.75
35.9375
35.25
34.6875
34.25
33.75
33.3125
32.9375
32.5
32.125
31.8125
31.5625
31.3125
31.0625
30.8125
30.5
30.1875
29.9375
29.625
29.3125
29.0
28.6875
28.4375
28.1875
27.9375
27.625
27.375
27.125
26.9375
26.75
26.625
26.375
26.75
31.5
49.6875
83.875
117.4375
132.8125
133.9375
130.25
122.875
111.1875
97.4375
84.3125
73.3125
64.0625
56.375
50.1875
45.6875
43.25
42.875
43.625
44.5625
45.3125
45.875
46.125
45.9375
45.375
44.5625
43.5625
42.5625
41.5625
40.5
39.4375
38.4375
37.5
36.625
35.875
35.1875
34.4375
33.875
33.375
32.9375
32.5625
32.25
31.9375
31.6875
31.4375
31.1875
30.875
30.5625
30.25
30.0
29.6875
29.4375
29.1875
28.875
28.625
28.3125
28.125
27.8125
27.5
27.25
27.0
26.6875
26.4375
26.125
25.875
25.6875
25.625
27.875
40.5
70.875
107.5625
129.3125
133.0
129.5625
123.125
112.0625
97.625
83.875
72.6875
63.625
56.3125
50.4375
45.9375
43.1875
42.5625
43.3125
44.25
44.875
45.1875
45.25
44.9375
44.4375
43.5625
42.5625
41.5
40.4375
39.375
38.375
37.375
36.5
35.75
35.0625
34.3125
33.625
33.0
32.5
32.0625
31.6875
31.4375
31.0625
30.75
30.5
30.1875
29.9375
29.625
29.375
29.0625
28.75
28.5
28.1875
27.9375
27.625
27.375
27.0
26.75
26.5625
26.375
26.1875
25.9375
25.6875
25.625
27.6875
39.3125
67.875
102.375
122.25
125.6875
122.4375
114.8125
102.3125
87.6875
74.375
64.0
56.125
49.9375
45.25
42.1875
41.1875
42.0625
43.5625
44.6875
45.4375
45.8125
45.875
45.5625
44.875
44.0
42.9375
41.8125
40.75
39.625
38.625
37.625
36.75
35.9375
35.1875
34.5
33.9375
33.4375
32.9375
32.5625
32.1875
31.9375
31.6875
31.375
31.125
30.875
30.5625
30.25
29.875
29.5625
29.3125
29.0625
28.8125
28.5625
28.3125
27.9375
27.6875
27.4375
27.1875
27.0
26.75
26.5625
26.375
26.1875
25.9375
26.1875
29.6875
45.25
78.375
115.1875
134.75
136.625
131.875
124.1875
113.8125
102.0
89.4375
77.1875
66.875
59.0
52.875
47.8125
44.5
43.3125
43.75
44.625
45.25
45.625
45.625
45.3125
44.8125
44.1875
43.4375
42.5
41.4375
40.375
39.3125
38.3125
37.375
36.5625
35.8125
35.125
34.4375
33.9375
33.375
32.875
32.4375
32.0625
31.75
31.5
31.25
31.0
30.6875
30.3125
29.9375
29.6875
29.5
29.25
29.0
28.75
28.4375
28.125
27.875
27.625
27.375
27.125
26.9375
26.75
26.5
26.375
27.75
37.1875
63.5
100.375
126.375
132.5
128.6875
121.625
110.8125
97.375
84.1875
72.6875
63.3125
55.625
49.5625
44.875
42.0
41.3125
42.0625
43.25
44.0625
44.5625
44.75
44.5
43.8125
42.9375
42.0
41.125
40.125
39.0625
38.0
37.0
36.0625
35.25
34.5
33.8125
33.1875
32.6875
32.1875
31.6875
31.25
30.875
30.5
30.1875
29.9375
29.6875
29.4375
29.1875
28.9375
28.6875
28.3125
28.0
27.6875
27.4375
27.1875
26.875
26.625
26.375
26.1875
26.0
25.8125
25.6875
25.5
25.3125
25.125
25.0
25.0
26.4375
35.875
62.625
99.75
124.0625
127.875
123.0
115.1875
102.5
87.125
73.625
63.5
55.8125
49.6875
45.125
42.125
40.8125
41.1875
42.3125
43.375
44.125
44.5625
44.625
44.3125
43.8125
42.9375
42.0
40.9375
39.875
38.8125
37.8125
36.875
36.0
35.25
34.5625
33.9375
33.375
32.875
32.375
31.9375
31.5
31.25
31.0
30.8125
30.5625
30.25
29.875
29.625
29.3125
29.125
28.875
28.625
28.4375
28.0625
27.75
27.4375
27.125
26.9375
26.75
26.5625
26.375
26.1875
26.0
25.8125
25.5625
25.875
30.125
47.25
80.75
115.375
132.5
133.6875
129.0625
121.5625
111.0
98.625
86.3125
75.0625
65.4375
57.6875
51.625
46.75
43.375
42.25
42.8125
43.75
44.5
44.9375
45.1875
45.0625
44.5625
43.6875
42.75
41.875
40.8125
39.8125
38.8125
37.8125
37.0
36.1875
35.375
34.6875
34.0625
33.4375
32.875
32.4375
32.0
31.625
31.1875
30.875
30.5
30.125
29.75
29.4375
29.125
28.8125
28.5625
28.25
27.9375
27.5625
27.3125
27.0625
26.8125
26.5625
26.375
26.125
25.9375
26.625
32.875
54.25
89.375
118.125
127.25
125.375
121.0
112.0625
98.5
84.25
72.6875
63.9375
56.5625
50.3125
45.625
42.625
41.5625
42.0
42.9375
43.6875
44.1875
44.4375
44.1875
43.625
42.875
41.9375
41.0
40.0625
39.0625
38.0
37.0
36.0
35.0625
34.25
33.625
33.0
32.5
32.0
31.625
31.25
30.9375
30.5625
30.25
30.0
29.8125
29.625
29.375
29.0
28.6875
28.375
28.125
27.8125
27.5625
27.3125
27.0625
26.875
26.625
26.375
26.25
26.125
26.0
26.0625
28.0625
39.5625
68.5
104.125
125.0625
128.0625
124.125
116.6875
104.375
89.1875
75.1875
64.5625
56.8125
50.8125
46.1875
43.0
41.75
42.125
43.1875
44.125
44.75
45.1875
45.25
44.875
44.125
43.1875
42.125
41.0625
40.0625
39.0
38.0625
37.1875
36.3125
35.5625
34.8125
34.0625
33.5
33.0625
32.625
32.25
31.9375
31.625
31.3125
31.0625
30.8125
30.5
30.1875
29.9375
29.6875
29.5
29.1875
28.8125
28.5
28.25
28.0
27.75
27.5625
27.3125
27.0625
26.875
26.625
26.6875
29.1875
42.125
72.5
109.125
131.125
135.9375
133.4375
127.125
117.0
104.375
91.5625
79.875
69.375
60.5
53.5625
48.25
44.5625
42.9375
43.1875
44.25
45.25
45.75
46.0
45.875
45.375
44.5625
43.6875
42.75
41.8125
40.6875
39.5
38.5
37.625
36.8125
36.0
35.25
34.6875
34.0625
33.5
33.0625
32.625
32.3125
31.9375
31.6875
31.4375
31.1875
30.875
30.5625
30.25
29.9375
29.6875
29.4375
29.1875
28.875
28.5625
28.25
27.9375
27.6875
27.375
27.0625
26.8125
26.5625
26.3125
26.0
25.6875
25.375
25.0625
25.0625
27.0625
38.9375
69.25
107.625
130.5625
134.125
130.25
123.0625
111.4375
96.6875
82.1875
70.0
60.6875
53.625
48.1875
44.1875
41.9375
41.875
42.9375
44.125
44.875
45.1875
45.25
44.875
44.125
43.25
42.1875
41.125
40.0625
39.0
38.0
37.0625
36.25
35.4375
34.6875
33.9375
33.25
32.6875
32.125
31.6875
31.375
31.125
30.8125
30.5625
30.1875
29.9375
29.6875
29.5
29.3125
29.0625
28.75
28.4375
28.125
27.875
27.625
27.4375
28.625
37.375
61.6875
94.625
116.5625
122.125
120.5625
115.75
106.0625
93.1875
80.375
69.4375
60.4375
53.0625
47.25
43.25
41.5
41.8125
42.875
43.75
44.375
44.8125
44.9375
44.6875
44.125
43.3125
42.5
41.6875
40.8125
40.0
39.125
38.3125
37.625
37.0
36.375
35.75
35.25
34.75
34.1875
33.8125
33.4375
33.0625
32.75
32.4375
32.125
31.75
31.375
31.125
30.875
30.5625
30.25
29.875
29.5625
29.25
29.125
30.875
41.8125
69.9375
106.25
129.0
133.375
129.875
123.375
113.1875
100.0625
86.6875
74.875
65.25
57.625
51.625
46.9375
44.3125
43.875
44.625
45.5
46.1875
46.4375
46.4375
46.0
45.3125
44.4375
43.4375
42.4375
41.4375
40.375
39.25
38.25
37.3125
36.5625
35.8125
35.1875
34.5625
34.0625
33.5
33.0
32.625
32.3125
32.0625
31.8125
31.625
31.375
31.0
30.625
30.3125
30.0
29.8125
29.5
29.25
28.9375
28.625
28.375
28.125
27.875
27.625
27.375
27.25
27.0625
27.0625
29.75
44.0625
77.875
117.1875
137.6875
138.0
131.0625
121.5625
108.625
93.75
80.25
69.3125
60.5625
53.6875
48.4375
44.8125
43.25
43.5625
44.6875
45.6875
46.3125
46.5
46.3125
45.6875
44.75
43.6875
42.5625
41.5
40.5
39.4375
38.375
37.375
36.4375
35.6875
34.9375
34.25
33.625
33.0625
32.625
32.1875
31.75
31.375
31.0625
30.75
30.5625
30.3125
29.9375
29.625
29.3125
29.0625
28.75
28.5
28.25
27.9375
27.6875
27.4375
27.125
26.8125
26.625
26.375
26.1875
26.0
25.875
25.6875
25.5
25.3125
25.1875
25.0625
24.9375
24.75
24.625
24.4375
24.25
24.125
24.0
23.875
23.75
23.5625
23.375
23.25
23.0625
22.9375
22.75
22.625
22.5625
22.5
22.375
22.375
24.1875
35.875
67.3125
107.4375
129.625
129.625
121.3125
109.4375
94.1875
78.9375
66.6875
57.875
51.3125
46.4375
43.0625
41.0
40.125
40.75
42.4375
44.0625
45.0
45.375
45.4375
45.125
44.5
43.625
42.5625
41.4375
40.4375
39.5
38.5
37.5625
36.625
35.8125
35.0625
34.375
33.875
33.375
33.0
32.5625
32.1875
31.8125
31.5625
31.375
31.125
30.875
30.625
30.375
30.0625
29.75
29.375
29.0625
28.8125
28.5
28.25
28.0
27.75
27.4375
27.1875
26.9375
26.75
26.5625
26.375
26.1875
26.0625
25.9375
25.6875
25.4375
25.3125
25.1875
25.5
29.375
44.9375
76.0625
110.125
128.5625
131.25
128.875
123.1875
113.6875
101.9375
90.0625
79.3125
69.8125
61.375
54.25
48.75
45.0625
43.5
43.625
44.4375
45.25
45.8125
46.0
46.0
45.4375
44.625
43.6875
42.6875
41.6875
40.6875
39.6875
38.75
37.75
36.875
36.0625
35.3125
34.6875
34.125
33.6875
33.25
32.8125
32.4375
32.0625
31.75
31.5
31.25
30.875
30.5625
30.375
30.125
29.8125
29.4375
29.0
28.75
28.5
28.0625
27.75
27.4375
27.1875
26.875
26.5
26.1875
25.9375
25.6875
25.4375
25.25
25.125
25.0
24.6875
24.4375
24.25
24.1875
24.0625
23.9375
23.8125
23.625
23.5
23.5625
25.6875
37.625
67.125
104.0625
126.125
129.1875
124.9375
117.8125
107.125
94.0625
81.25
70.3125
61.5
54.4375
48.875
44.5625
41.625
40.6875
41.4375
42.6875
43.625
44.1875
44.375
44.25
43.6875
42.875
41.9375
40.8125
39.75
38.75
37.6875
36.75
35.8125
34.9375
34.1875
33.5625
33.0
32.4375
31.875
31.375
30.9375
30.5625
30.1875
29.9375
29.6875
29.5
29.1875
28.8125
28.4375
28.125
27.875
27.625
27.3125
27.0625
26.75
26.5
26.3125
26.3125
26.1875
26.1875
26.1875
26.25
26.375
26.375
26.375
27.0
31.5
47.8125
78.0625
108.3125
122.8125
122.8125
118.5
111.875
101.125
87.875
75.5625
65.8125
58.0
51.625
46.625
43.25
41.75
41.9375
42.9375
43.8125
44.3125
44.5625
44.5625
44.25
43.5625
42.6875
41.6875
40.625
39.6875
38.75
37.75
36.9375
36.125
35.375
34.6875
34.0
33.5625
33.0
32.5
32.0
31.6875
31.4375
31.125
30.875
30.6875
30.375
30.125
29.8125
29.5
29.1875
28.9375
28.6875
28.4375
28.1875
27.875
27.625
27.3125
27.125
26.9375
26.8125
27.625
34.75
56.5625
90.8125
119.1875
129.5625
129.4375
126.6875
120.3125
109.75
97.375
85.625
75.5
66.75
59.375
53.1875
48.1875
44.8125
43.6875
44.0
44.75
45.4375
45.75
45.8125
45.5625
44.875
44.0
43.0625
42.125
41.125
40.0625
39.0625
38.0625
37.25
36.375
35.625
34.875
34.3125
33.75
33.25
32.8125
32.4375
32.125
31.8125
31.5
31.1875
30.875
30.625
30.375
30.125
29.8125
29.4375
29.125
28.875
28.625
28.375
28.125
27.875
27.6875
27.4375
27.1875
26.9375
26.75
26.5
26.25
26.1875
28.375
40.625
70.625
107.5
128.9375
131.875
128.3125
122.125
111.625
97.75
83.875
72.125
62.8125
55.625
49.9375
45.375
42.4375
41.625
42.5
43.75
44.625
45.125
45.375
45.125
44.375
43.4375
42.4375
41.375
40.25
39.25
38.25
37.375
36.5625
35.8125
35.0
34.3125
33.625
33.0625
32.625
32.1875
31.75
31.4375
31.0625
30.6875
30.3125
30.0
29.75
29.5
29.25
29.0
28.625
28.3125
28.0
27.6875
27.4375
27.125
26.875
26.5625
26.3125
26.0625
25.8125
25.5625
25.375
25.0625
24.875
24.75
24.5625
24.375
24.125
23.9375
23.8125
23.625
23.5
23.5625
27.0
43.3125
77.0
110.25
123.8125
122.625
117.4375
108.25
94.125
78.9375
67.1875
59.125
52.75
47.5625
43.75
41.4375
40.8125
42.0
43.875
45.3125
46.125
46.4375
46.4375
46.0625
45.3125
44.25
43.1875
42.1875
41.125
40.125
39.125
38.1875
37.3125
36.4375
35.6875
35.0
34.5
34.0
33.5625
33.1875
32.75
32.5
32.125
31.875
31.625
31.4375
31.25
31.0
30.6875
30.375
30.0
29.75
29.5
29.1875
28.8125
28.5625
28.375
28.125
27.8125
27.5625
27.25
27.0625
26.9375
26.875
26.75
26.5625
26.3125
26.4375
29.125
42.0
71.25
106.0
127.5625
133.375
132.4375
126.875
117.0625
105.5625
94.25
83.1875
72.625
63.75
56.9375
51.6875
47.5
45.1875
44.9375
45.6875
46.5
46.9375
47.0
46.8125
46.375
45.6875
44.8125
43.875
42.875
41.875
40.8125
39.8125
38.875
38.0
37.25
36.5
35.875
35.3125
34.75
34.25
33.75
33.375
33.0625
32.75
32.5
32.25
31.9375
31.625
31.3125
31.0
30.6875
30.3125
30.125
29.875
29.625
29.3125
29.0
28.75
28.5625
28.3125
28.0625
27.875
27.75
27.5625
27.375
27.125
26.875
27.0625
30.6875
46.5
79.125
113.875
131.375
133.4375
130.6875
124.75
114.375
101.1875
87.875
76.25
66.8125
59.125
52.75
47.8125
44.75
43.8125
44.4375
45.3125
45.9375
46.1875
46.3125
46.0625
45.5625
44.8125
43.875
42.9375
41.875
40.875
39.875
38.875
37.9375
37.0625
36.3125
35.5625
34.875
34.25
33.6875
33.125
32.625
32.3125
31.9375
31.6875
31.375
31.0625
30.75
30.5
30.3125
30.0
29.75
29.4375
29.1875
28.875
28.8125
31.4375
44.3125
72.625
104.125
121.5
124.5625
122.375
117.625
108.875
96.4375
83.25
71.875
63.0
55.875
49.875
45.1875
42.6875
42.5625
43.5625
44.4375
44.875
45.1875
45.25
44.875
44.25
43.375
42.4375
41.5
40.5
39.625
38.5
37.375
36.4375
35.5625
34.8125
34.1875
33.625
33.0625
32.625
32.25
31.9375
31.625
31.375
31.25
31.25
31.25
31.25
31.25
31.25
31.3125
31.3125
31.3125
31.375
31.5
31.5625
32.3125
38.4375
59.3125
94.25
124.5
135.6875
133.625
127.3125
117.25
103.625
89.125
76.4375
66.375
58.5
52.375
47.875
45.0625
44.4375
45.1875
46.3125
47.0
47.4375
47.5
47.25
46.6875
45.875
44.8125
43.6875
42.6875
41.625
40.5625
39.625
38.625
37.6875
36.9375
36.1875
35.625
35.0625
34.5625
34.0625
33.75
33.375
33.0625
32.75
32.5
32.25
32.0625
31.8125
31.5625
31.25
30.9375
30.5625
30.25
30.0625
29.75
29.5
29.75
34.4375
53.375
89.6875
124.5625
139.5
140.0
136.0625
128.5
117.25
104.5
91.8125
80.25
70.5625
62.5
55.625
50.0625
46.5625
45.625
46.0625
46.9375
47.625
47.875
47.875
47.5
46.875
46.0
44.9375
43.875
42.875
41.9375
40.9375
39.9375
39.0
38.0625
37.3125
36.5625
35.9375
35.4375
34.9375
34.5
34.125
33.75
33.375
33.0
32.75
32.4375
32.1875
31.875
31.625
31.3125
31.0625
30.75
30.375
30.0625
29.875
29.5625
29.25
29.1875
31.8125
46.4375
81.0
120.125
139.3125
139.875
134.8125
127.0
115.0
100.375
86.3125
74.75
65.4375
57.8125
51.625
46.9375
44.375
44.125
45.0625
46.125
46.8125
47.125
47.125
46.75
46.0
45.0625
44.0
43.0
41.9375
40.875
39.875
38.875
37.9375
37.0625
36.25
35.5625
34.875
34.3125
33.8125
33.25
32.8125
32.5
32.125
31.8125
31.5625
31.25
31.0
30.6875
30.375
30.0
29.625
29.375
29.125
28.875
28.5
28.25
27.9375
27.75
27.5
27.25
27.375
31.125
49.125
85.625
120.75
134.9375
134.125
128.5625
118.875
104.5625
89.0625
76.0625
66.0625
58.25
51.9375
47.1875
44.125
43.25
44.1875
45.625
46.6875
47.375
47.75
47.75
47.375
46.6875
45.8125
44.75
43.6875
42.625
41.625
40.625
39.6875
38.75
37.75
37.0
36.375
35.8125
35.3125
34.8125
34.375
34.0
33.75
33.4375
33.125
32.75
32.5
32.1875
31.9375
31.625
31.3125
31.0
30.75
30.4375
30.1875
30.875
37.5
60.125
97.3125
128.1875
139.0625
137.6875
133.1875
125.4375
113.875
100.125
86.625
75.1875
66.25
58.9375
52.8125
48.25
46.0625
46.0
46.8125
47.625
48.0625
48.25
48.0625
47.5625
46.75
45.875
44.875
43.75
42.625
41.5
40.375
39.4375
38.5
37.6875
36.9375
36.3125
35.6875
35.1875
34.6875
34.1875
33.8125
33.5625
33.25
33.0
32.625
32.3125
32.0
31.6875
31.4375
31.125
30.875
30.625
30.375
30.0625
29.75
29.4375
29.1875
28.9375
28.75
28.5
28.5625
31.4375
46.5625
81.75
121.0625
140.25
141.0625
136.5
128.8125
116.4375
101.125
86.5
74.5625
65.0
57.3125
51.3125
47.0625
45.0
45.0
46.0
47.0
47.625
47.875
47.8125
47.375
46.5625
45.5625
44.375
43.25
42.0625
40.9375
39.8125
38.875
37.9375
37.0
36.1875
35.375
34.75
34.25
33.75
33.3125
32.9375
32.625
32.375
32.0625
31.75
31.5
31.1875
30.9375
30.6875
30.5
30.125
29.75
29.375
29.0625
28.8125
28.5625
28.3125
28.1875
27.875
27.625
27.4375
27.1875
27.0
26.8125
26.6875
26.625
26.5
26.4375
28.4375
40.875
73.0
112.1875
133.75
135.8125
130.625
121.4375
107.3125
91.375
78.0
67.8125
59.6875
53.0
47.875
44.375
42.875
43.3125
44.6875
45.9375
46.5625
46.8125
46.8125
46.3125
45.5625
44.5625
43.4375
42.25
41.25
40.25
39.3125
38.3125
37.375
36.625
36.0
35.5
35.125
