0
35.1875
34.9375
34.5625
34.125
33.625
33.25
33.0
32.75
32.5625
32.375
32.25
32.3125
32.9375
34.625
37.875
41.8125
44.875
46.5
47.5
48.875
51.125
53.375
54.6875
54.75
53.75
52.0
49.9375
47.8125
45.75
44.6875
44.5625
43.9375
43.0
42.0625
41.0625
40.5
40.1875
39.9375
39.6875
39.3125
38.9375
38.5
37.9375
37.375
36.875
36.375
36.0
35.6875
35.4375
35.25
35.1875
35.1875
35.6875
37.25
40.1875
43.1875
45.1875
46.25
47.125
48.625
50.4375
51.9375
52.3125
51.75
50.375
48.6875
46.9375
45.0
43.375
42.8125
42.5625
41.875
41.125
40.25
39.4375
38.9375
38.625
38.4375
38.1875
37.9375
37.5625
37.125
36.6875
36.3125
36.0
35.625
35.25
34.875
34.5
34.125
33.8125
33.5625
33.375
33.25
33.3125
33.8125
35.5
38.625
42.375
45.125
46.5625
47.5
48.9375
51.0625
53.0625
54.125
54.0
53.0
51.1875
49.1875
47.125
45.1875
44.25
44.125
43.4375
42.5
41.5625
40.5625
39.9375
39.4375
38.9375
38.375
37.75
37.0
36.125
35.3125
34.5
33.875
33.3125
32.875
32.4375
32.1875
31.8125
31.4375
31.0
30.5625
30.3125
30.0625
29.9375
29.875
29.875
29.9375
30.1875
30.875
32.8125
35.875
39.125
41.625
43.1875
44.5
46.4375
48.75
50.6875
51.625
51.375
50.25
48.625
46.75
44.75
43.25
43.125
43.1875
42.5625
41.8125
41.0625
40.5625
40.5
40.5625
40.375
39.9375
39.3125
38.625
38.0625
37.6875
37.4375
37.1875
37.0625
37.0
37.625
39.4375
41.8125
43.9375
45.625
47.0625
48.9375
51.125
53.0
54.3125
54.9375
54.6875
53.75
52.4375
50.6875
49.0
48.0
47.5625
46.6875
45.5625
44.375
43.25
42.4375
41.9375
41.5625
41.25
40.875
40.4375
39.8125
39.1875
38.6875
38.125
37.625
37.25
36.9375
36.625
36.3125
36.0
35.75
35.5
35.375
35.5
35.75
35.9375
35.9375
35.625
35.0
34.125
33.3125
32.625
32.3125
32.25
32.375
32.625
33.125
34.625
37.375
41.375
45.25
47.9375
49.375
50.5625
52.375
54.625
56.5625
57.3125
56.9375
55.75
54.0
51.9375
49.625
47.4375
46.3125
46.1875
45.5625
44.625
43.6875
42.75
42.125
41.6875
41.375
41.0625
40.625
40.125
39.5625
38.9375
38.3125
37.8125
37.5
37.25
37.1875
37.1875
37.25
38.3125
40.5625
43.1875
45.1875
46.25
47.125
48.3125
49.8125
51.0625
51.4375
50.8125
49.4375
47.875
46.125
44.3125
42.9375
42.4375
42.1875
41.5625
40.8125
40.0
39.25
38.75
38.5
38.25
38.0
37.6875
37.3125
36.9375
36.5
36.25
35.9375
35.625
35.25
34.9375
34.625
34.25
33.875
33.625
33.375
33.1875
33.1875
33.5625
34.875
37.625
41.25
44.25
46.0625
47.0625
48.1875
50.0625
52.25
53.8125
54.1875
53.625
52.1875
50.5
48.625
46.5625
44.875
44.125
43.875
43.1875
42.375
41.5
40.625
40.125
39.8125
39.5625
39.25
38.9375
38.5625
38.125
37.75
37.3125
36.9375
36.5
36.0625
35.75
35.375
35.0625
34.75
34.4375
34.25
34.25
34.5625
35.5625
37.9375
41.3125
44.25
46.0625
47.0
48.125
49.875
51.9375
53.4375
53.75
53.0625
51.625
49.9375
48.1875
46.125
44.5
43.9375
43.6875
42.875
42.125
41.25
40.4375
39.9375
39.6875
39.375
39.125
38.75
38.375
37.9375
37.5
37.125
36.8125
36.5
36.0625
35.6875
35.3125
34.9375
34.625
34.375
34.125
33.9375
33.875
34.25
35.4375
38.0
41.4375
44.375
46.1875
47.1875
48.375
50.1875
52.375
53.9375
54.375
53.6875
52.25
50.5625
48.75
46.625
44.9375
44.1875
43.9375
43.1875
42.375
41.5
40.6875
40.125
39.75
39.5
39.1875
38.8125
38.375
37.8125
37.1875
36.5625
35.9375
35.25
34.6875
34.125
33.5
32.9375
32.375
31.875
31.375
30.9375
30.5625
30.125
29.8125
29.625
29.4375
29.3125
29.25
29.1875
29.3125
29.625
30.4375
32.375
35.5
39.125
42.125
44.0625
45.5625
47.5
50.1875
52.75
54.3125
54.75
54.25
52.875
51.1875
49.375
47.5
46.75
47.125
46.875
46.25
45.625
45.0625
44.75
44.75
44.75
44.5
44.0
43.3125
42.4375
41.4375
40.625
39.9375
39.5
39.25
39.0625
38.875
38.8125
39.1875
40.75
43.5
46.25
48.0
48.9375
49.75
51.0
52.5625
53.5625
53.6875
52.875
51.375
49.8125
48.0625
46.1875
44.5
43.75
43.4375
42.8125
42.0625
41.25
40.4375
39.8125
39.5
39.3125
39.0625
38.6875
38.375
37.9375
37.5625
37.1875
36.8125
36.4375
36.0
35.625
35.25
34.875
34.625
34.375
34.125
34.125
34.375
35.5625
38.125
41.6875
44.75
46.5625
47.5625
48.5625
50.3125
52.5
54.0
54.375
53.75
52.375
50.6875
48.9375
46.875
45.0
44.125
43.9375
43.3125
42.5625
41.6875
40.8125
40.25
39.9375
39.625
39.375
39.125
38.75
38.3125
37.8125
37.4375
37.0625
36.6875
36.3125
35.875
35.5
35.25
34.9375
34.625
34.375
34.125
34.0625
34.375
35.4375
37.875
41.3125
44.3125
46.1875
47.25
48.375
50.125
52.3125
53.875
54.375
53.875
52.5
50.8125
48.9375
46.875
45.0625
44.375
44.1875
43.375
42.5625
41.6875
40.875
40.25
39.9375
39.6875
39.4375
39.0625
38.6875
38.3125
37.875
37.375
37.0
36.625
36.25
35.8125
35.4375
35.125
34.8125
34.5625
34.3125
34.1875
34.3125
35.0625
36.9375
40.125
43.4375
45.6875
46.9375
47.9375
49.5
51.6875
53.5
54.375
54.1875
53.0625
51.4375
49.625
47.625
45.625
44.5
44.25
43.6875
42.8125
41.9375
41.0
40.3125
39.9375
39.625
39.3125
39.0
38.625
38.1875
37.6875
37.1875
36.8125
36.5
36.25
36.0
35.6875
35.4375
35.125
34.8125
34.5625
34.3125
34.0
33.625
33.25
32.875
32.625
32.3125
32.0625
31.875
31.8125
31.8125
32.25
33.625
36.4375
40.4375
44.125
46.375
47.625
48.9375
51.0
53.5
55.5625
56.375
56.0625
54.8125
52.9375
50.8125
48.5
46.5625
45.6875
45.1875
44.0625
42.6875
41.3125
40.0625
39.1875
38.5625
38.0625
37.5625
37.0625
36.5625
36.0625
35.5
34.875
34.3125
33.875
33.625
33.4375
33.25
33.1875
33.125
33.125
33.25
33.8125
35.5
38.3125
41.125
43.25
44.8125
46.375
48.5
50.75
52.4375
53.0
52.5
51.25
49.75
48.1875
46.6875
46.0625
46.1875
45.9375
45.375
44.75
44.1875
43.75
43.5625
43.375
42.9375
42.3125
41.625
40.8125
40.125
39.4375
38.9375
38.5
38.125
37.8125
37.375
36.9375
36.625
36.5
37.0625
38.75
41.8125
45.25
47.75
48.9375
49.6875
50.8125
52.5
53.9375
54.4375
53.875
52.5625
50.875
49.1875
47.3125
45.25
43.75
43.25
43.0
42.375
41.625
40.75
39.9375
39.4375
39.125
38.875
38.625
38.3125
37.9375
37.5
37.0
36.625
36.3125
36.0
35.6875
35.375
34.9375
34.5625
34.125
33.75
33.4375
33.25
33.0625
32.875
33.0
33.5625
35.125
38.25
42.0
44.9375
46.5625
47.625
48.8125
50.75
52.9375
54.3125
54.5
53.75
52.25
50.4375
48.5
46.4375
44.8125
44.25
43.875
43.0625
42.25
41.3125
40.5
40.0
39.6875
39.4375
39.125
38.8125
38.375
37.9375
37.5
37.0625
36.6875
36.3125
35.9375
35.5625
35.1875
34.75
34.4375
34.1875
33.875
33.6875
33.75
34.125
35.375
38.0
41.4375
44.25
45.875
46.875
48.0625
49.9375
52.0625
53.5
53.8125
53.0625
51.5625
49.8125
48.0
45.9375
44.3125
43.75
43.4375
42.6875
41.875
40.9375
40.125
39.625
39.3125
39.0625
38.75
38.4375
38.0625
37.625
37.1875
36.8125
36.4375
36.0
35.625
35.25
34.875
34.5
34.1875
33.9375
33.75
33.625
33.875
34.6875
36.8125
40.1875
43.375
45.4375
46.5625
47.5625
49.1875
51.25
53.0625
53.75
53.375
52.125
50.4375
48.6875
46.625
44.6875
43.625
43.375
42.875
42.0
41.125
40.25
39.625
39.25
39.0
38.75
38.4375
38.125
37.75
37.25
36.875
36.4375
36.0625
35.625
35.25
34.9375
34.625
34.25
34.0
33.75
33.625
33.75
34.4375
36.375
39.625
42.9375
45.125
46.375
47.375
48.8125
50.875
52.75
53.625
53.4375
52.3125
50.6875
48.9375
47.0
45.0625
43.8125
43.5625
43.0
42.1875
41.3125
40.375
39.6875
39.25
38.9375
38.5625
38.0625
37.4375
36.6875
35.875
35.0625
34.375
33.6875
33.0
32.375
31.75
31.3125
30.9375
30.625
30.375
30.25
30.1875
30.3125
31.125
33.1875
36.3125
39.375
41.5
42.875
44.25
46.25
48.5
50.3125
51.0625
50.8125
49.6875
48.25
46.625
44.6875
43.1875
42.8125
42.8125
42.25
41.75
41.1875
40.8125
40.75
40.875
41.0
41.0625
41.125
41.0
40.75
40.4375
40.0625
39.6875
39.25
38.75
38.25
37.75
37.25
36.8125
36.375
36.0625
35.8125
35.625
35.5
35.375
35.0625
34.5625
33.9375
33.3125
32.75
32.375
32.375
32.4375
32.5625
33.0
34.3125
36.875
40.75
44.625
47.3125
48.6875
49.75
51.375
53.5625
55.4375
56.25
55.875
54.6875
52.9375
50.9375
48.8125
46.625
45.5
45.25
44.75
43.9375
43.0
42.0625
41.3125
40.875
40.5
40.1875
39.6875
39.125
38.5625
37.9375
37.375
37.0
36.75
36.625
36.625
36.6875
37.5
39.625
42.1875
44.1875
45.4375
46.25
47.3125
48.8125
50.125
50.625
50.25
48.9375
47.375
45.6875
43.875
42.4375
41.875
41.625
40.9375
40.25
39.4375
38.75
38.25
37.875
37.625
37.375
37.0625
36.6875
36.3125
35.8125
35.5625
35.25
34.9375
34.625
34.25
33.875
33.5
33.125
32.875
32.6875
32.5
32.4375
32.75
33.75
36.0625
39.6875
43.0625
45.25
46.375
47.4375
49.125
51.3125
53.1875
53.875
53.4375
52.1875
50.375
48.5625
46.4375
44.5625
43.625
43.4375
42.8125
42.0
41.125
40.125
39.5625
39.125
38.875
38.75
38.375
38.0
37.5625
37.0625
36.6875
36.3125
35.9375
35.625
35.1875
34.8125
34.5
34.125
33.8125
33.5625
33.375
33.25
33.375
34.1875
36.125
39.5
42.875
45.0625
46.25
47.25
48.8125
50.9375
52.75
53.5625
53.1875
51.9375
50.25
48.375
46.4375
44.625
43.8125
43.5625
42.875
41.9375
41.0
40.1875
39.625
39.25
39.0
38.75
38.375
38.0
37.5625
37.125
36.75
36.375
36.0625
35.6875
35.1875
34.8125
34.4375
34.125
33.875
33.625
33.4375
33.4375
33.9375
35.3125
38.125
41.5625
44.25
45.8125
46.75
48.0
49.9375
52.0
53.3125
53.375
52.5625
51.0
49.3125
47.375
45.3125
43.875
43.4375
43.0625
42.25
41.4375
40.4375
39.6875
39.1875
38.9375
38.6875
38.4375
38.0625
37.625
37.1875
36.8125
36.375
36.0
35.625
35.25
34.6875
34.0625
33.4375
32.75
32.1875
31.5625
31.0
30.625
30.625
31.4375
33.8125
37.1875
40.0625
41.6875
42.6875
43.875
45.625
47.625
48.9375
49.125
48.375
46.9375
45.4375
43.75
42.0
41.0
40.9375
40.75
40.1875
39.5625
38.9375
38.625
38.5
38.4375
38.3125
38.125
37.8125
37.5625
37.3125
37.25
37.3125
37.375
37.4375
37.5625
37.6875
37.8125
37.875
37.8125
37.75
37.5625
37.25
36.875
36.5
36.1875
35.9375
35.5
34.875
34.1875
33.5625
33.125
32.875
32.875
32.75
32.75
33.1875
34.5
37.25
41.1875
45.0
47.5
48.75
49.8125
51.625
53.9375
55.875
56.625
56.1875
55.0
53.125
51.0
48.75
46.5625
45.375
45.25
44.6875
43.8125
42.875
41.875
41.1875
40.75
40.5625
40.3125
39.875
39.375
38.75
38.125
37.5625
37.0625
36.6875
36.4375
36.3125
36.3125
36.3125
36.9375
38.9375
41.75
44.0
45.3125
46.125
47.0625
48.5
49.9375
50.75
50.5
49.5
47.875
46.1875
44.3125
42.6875
41.875
41.6875
41.125
40.375
39.5625
38.8125
38.1875
37.875
37.6875
37.4375
37.125
36.8125
36.375
36.0
35.625
35.3125
34.9375
34.5625
34.1875
33.875
33.5625
33.25
33.0
32.8125
32.6875
32.8125
33.375
35.125
38.3125
41.9375
44.5
45.875
46.8125
48.1875
50.25
52.25
53.3125
53.25
52.25
50.5625
48.6875
46.75
44.8125
43.75
43.5
42.875
42.0625
41.1875
40.3125
39.625
39.1875
38.9375
38.6875
38.4375
38.0625
37.625
37.125
36.75
36.375
36.0
35.625
35.25
34.875
34.4375
34.1875
33.875
33.625
33.375
33.25
33.4375
34.125
36.125
39.4375
42.8125
45.0625
46.25
47.25
48.75
50.875
52.6875
53.4375
53.125
51.875
50.125
48.25
46.1875
44.3125
43.5625
43.375
42.6875
41.8125
40.9375
40.0625
39.4375
39.125
38.875
38.625
38.3125
37.9375
37.5
37.0625
36.625
36.3125
36.0
35.625
35.25
34.8125
34.4375
34.0625
33.8125
33.5625
33.3125
33.1875
33.25
33.8125
35.4375
38.5625
42.125
44.75
46.125
47.0
48.25
50.1875
51.875
52.5625
52.125
50.875
48.9375
46.75
44.4375
42.25
40.9375
40.5625
40.0
39.1875
38.375
37.5625
36.9375
36.625
36.4375
36.3125
36.125
35.875
35.5625
35.1875
34.875
34.6875
34.4375
34.375
34.25
34.0
33.75
33.5
33.3125
33.3125
33.25
33.25
33.3125
33.5625
34.125
35.625
38.5
42.0625
45.125
47.4375
49.25
51.4375
54.125
56.6875
58.3125
58.6875
58.0
56.25
54.0
51.5625
49.25
47.9375
47.6875
46.9375
45.75
44.6875
43.5625
42.6875
42.125
41.75
41.4375
41.0
40.5
39.9375
39.375
38.875
38.5
38.1875
37.875
37.5
37.125
36.625
36.1875
35.75
35.375
35.0
34.6875
34.4375
34.4375
34.8125
36.1875
39.0625
42.6875
45.5625
47.1875
48.0625
49.25
51.1875
53.0625
54.1875
54.1875
53.1875
51.625
49.875
47.9375
45.875
44.375
43.875
43.5
42.75
41.9375
41.0
40.25
39.75
39.375
39.125
38.8125
38.5
38.0625
37.625
37.1875
36.8125
36.5
36.125
35.75
35.3125
34.9375
34.5
34.1875
33.9375
33.75
33.625
33.6875
34.25
35.9375
39.0625
42.5625
45.0625
46.375
47.25
48.5625
50.625
52.4375
53.625
54.125
52.5
50.25
48.3125
45.8125
44.1875
44.5
44.0625
43.0625
42.3125
41.375
40.75
40.125
39.5625
39.125
38.875
38.5625
38.25
37.875
37.375
36.875
36.5625
36.375
36.125
35.75
35.25
34.875
34.5
34.125
33.8125
33.625
33.375
33.3125
33.75
35.0
37.6875
41.25
44.375
46.1875
47.1875
48.5
50.5625
52.9375
54.5
54.8125
54.0625
52.4375
50.25
47.875
45.625
44.4375
44.3125
43.9375
42.9375
41.8125
40.875
40.0625
39.75
39.5
39.25
38.875
38.4375
38.0
37.4375
37.125
37.125
36.9375
36.25
35.75
35.375
35.0625
34.75
34.4375
34.125
33.8125
33.5625
33.6875
34.125
35.3125
38.125
41.625
44.375
45.875
47.1875
48.75
50.8125
53.0625
54.1875
54.125
53.25
51.75
50.0
48.1875
46.25
45.0
44.5625
44.0
42.9375
41.9375
41.0
40.0625
39.5625
39.4375
39.0625
38.75
38.5625
38.1875
37.75
37.5
37.1875
36.75
36.3125
35.9375
35.5
35.125
34.875
34.8125
35.25
35.6875
36.0625
36.5625
37.125
38.0
39.375
42.125
44.875
46.1875
46.5625
46.5
47.25
48.8125
50.1875
50.4375
49.875
48.5625
46.9375
45.3125
42.9375
41.25
41.375
41.25
40.4375
39.625
38.5625
37.6875
37.4375
37.5625
37.5625
37.375
37.0
36.5625
36.0625
35.875
35.8125
35.6875
35.375
35.125
34.9375
34.75
34.5625
34.375
34.25
34.25
34.25
34.3125
34.75
35.3125
36.375
38.8125
42.4375
46.0
48.5625
50.25
52.0625
54.375
56.8125
58.625
59.1875
58.5
57.0625
55.0
52.4375
50.125
48.8125
48.625
48.0
46.625
45.1875
44.0
43.25
42.75
42.4375
42.1875
41.75
41.25
40.6875
40.125
39.625
39.1875
38.8125
38.4375
38.0625
37.625
37.1875
36.8125
36.3125
35.875
35.4375
35.125
34.875
34.8125
35.125
36.3125
39.0
42.5625
45.5625
47.3125
48.1875
49.3125
51.0625
53.0625
54.5
54.6875
54.0
52.5
50.75
48.9375
46.9375
45.25
44.5625
44.3125
43.625
42.875
42.0
41.1875
40.625
40.25
39.9375
39.6875
39.3125
38.9375
38.4375
37.9375
37.5625
37.1875
36.6875
36.1875
35.75
35.375
35.0
34.75
34.5
34.25
34.1875
34.3125
35.0625
37.0625
40.375
43.6875
45.8125
46.9375
47.875
49.4375
51.5
53.25
53.9375
53.5625
52.3125
50.625
48.875
46.875
45.0625
44.3125
44.0625
43.375
42.5
41.625
40.8125
40.1875
39.875
39.5625
39.3125
39.0
38.625
38.1875
37.6875
37.25
36.9375
36.5
36.125
35.6875
35.3125
34.9375
34.6875
34.4375
34.25
34.0625
34.1875
34.8125
36.75
39.9375
43.3125
45.5625
46.6875
47.6875
49.25
51.4375
53.25
54.125
53.875
52.6875
51.0
49.1875
47.25
45.375
44.4375
44.125
43.5
42.625
41.6875
40.8125
40.1875
39.8125
39.5625
39.25
38.875
38.4375
38.0625
37.625
37.1875
36.8125
36.5
36.1875
35.875
35.5
35.0625
34.625
34.3125
34.0
33.75
33.5625
33.5
33.5625
34.1875
36.0
39.375
43.0
45.5625
46.875
47.8125
49.4375
51.6875
53.75
54.8125
54.625
53.5
51.6875
49.8125
47.75
45.8125
44.875
44.625
43.9375
43.0
42.0625
41.125
40.4375
39.9375
39.625
39.1875
38.625
37.875
37.125
36.3125
35.5
34.75
34.1875
33.625
33.0
32.5
32.0625
31.625
31.3125
31.0
30.75
30.5
30.5
30.625
31.0625
32.5625
35.375
38.6875
41.375
43.0625
44.4375
46.25
48.5625
50.75
52.0625
52.125
51.375
50.0
48.375
46.5625
44.8125
44.25
44.4375
44.0
43.4375
42.9375
42.5
42.375
42.5
42.6875
42.8125
42.75
42.5
42.0625
41.5
40.9375
40.375
39.875
39.3125
38.8125
38.3125
37.6875
37.1875
36.6875
36.1875
35.75
35.4375
35.125
35.0
35.125
36.0625
38.375
41.9375
45.5625
47.875
49.0625
49.9375
51.375
53.375
54.9375
55.5
54.9375
53.625
51.8125
49.9375
47.875
45.8125
44.625
44.3125
43.875
43.0
42.125
41.1875
40.5625
40.125
39.8125
39.5625
39.1875
38.8125
38.4375
37.9375
37.5
37.0625
36.625
36.125
35.6875
35.3125
34.9375
34.625
34.4375
34.25
34.125
34.3125
35.125
37.25
40.5625
43.625
45.5625
46.5625
47.4375
49.0625
51.0625
52.625
53.125
52.625
51.25
49.625
48.0
46.0625
44.375
43.625
43.375
42.625
41.75
40.875
40.0625
39.5625
39.1875
38.875
38.625
38.25
37.8125
37.375
36.9375
36.5625
36.25
35.875
35.5
35.125
34.75
34.375
34.0
33.6875
33.4375
33.25
33.1875
33.5
34.3125
36.5625
40.0
43.25
45.3125
46.375
47.4375
49.0625
51.1875
53.0
53.625
53.25
52.0
50.3125
48.5
46.5
44.5625
43.625
43.5
42.875
42.0
41.125
40.1875
39.5625
39.1875
38.9375
38.625
38.3125
38.0
37.5625
37.0625
36.6875
36.3125
35.9375
35.625
35.1875
34.8125
34.4375
34.0625
33.6875
33.375
33.0625
32.9375
33.1875
33.9375
35.875
39.1875
42.6875
45.125
46.4375
47.5625
49.0625
51.25
53.1875
53.9375
53.625
52.5
50.75
48.875
46.875
45.0
44.125
43.875
43.1875
42.3125
41.4375
40.5
39.875
39.4375
39.1875
38.9375
38.5625
38.1875
37.75
37.25
36.8125
36.5
36.1875
35.9375
35.5625
35.1875
34.75
34.3125
34.0
33.6875
33.4375
33.25
33.1875
33.5
34.5
36.9375
40.5625
43.8125
45.6875
46.625
47.625
49.3125
51.3125
52.5625
52.6875
51.625
49.9375
47.8125
45.5625
43.3125
41.5625
41.0
40.625
39.75
38.9375
38.0
37.25
36.875
36.625
36.4375
36.3125
36.0
35.6875
35.3125
34.9375
34.6875
34.5
34.25
34.125
33.75
33.375
33.0
32.75
32.625
32.375
32.25
32.25
32.3125
32.75
34.125
36.75
40.0
42.75
44.5625
46.1875
48.25
51.0
53.6875
55.5
56.375
56.375
55.5
54.0
52.25
50.375
49.1875
48.8125
48.0
46.625
45.3125
44.0625
43.1875
42.5625
42.25
41.9375
41.5
41.0
40.375
39.6875
39.125
38.625
38.1875
37.8125
37.375
37.0
36.625
36.1875
35.75
35.375
35.125
34.9375
34.875
35.125
36.1875
38.5625
42.0
45.25
47.1875
48.125
48.9375
50.375
52.25
53.75
54.125
53.5625
52.3125
50.625
49.0
47.125
45.1875
44.0625
43.75
43.25
42.375
41.5625
40.625
39.9375
39.5
39.25
38.9375
38.5625
38.1875
37.8125
37.375
36.9375
36.4375
36.0
35.625
35.1875
34.875
34.5625
34.3125
34.125
33.9375
33.875
34.25
35.5
38.1875
41.5625
44.25
45.75
46.5625
47.6875
49.4375
51.4375
52.625
52.75
51.9375
50.4375
48.8125
47.0625
45.125
43.625
43.0625
42.8125
42.0625
41.25
40.375
39.5625
39.0
38.6875
38.3125
38.0
37.6875
37.3125
36.8125
36.3125
35.875
35.625
35.3125
35.0625
34.8125
34.5625
34.25
34.0
33.8125
33.5
33.1875
32.875
32.5
32.0625
31.75
31.5
31.3125
31.125
31.0
30.9375
31.1875
32.1875
34.4375
38.125
42.0
44.75
46.25
47.3125
48.9375
51.3125
53.6875
54.9375
55.0
54.125
52.5
50.5625
48.5625
46.375
44.9375
44.6875
44.25
43.375
42.375
41.375
40.625
40.1875
39.875
39.625
39.3125
38.9375
38.5625
38.0
37.4375
36.8125
36.3125
36.0
35.6875
35.4375
35.25
35.0625
35.125
35.4375
36.8125
39.5
42.4375
44.5
45.5625
46.4375
47.75
49.625
51.3125
52.0
51.6875
50.4375
48.875
47.25
45.375
43.625
42.75
42.5625
42.0
41.125
40.3125
39.5
38.875
38.5625
38.25
37.9375
37.625
37.25
36.875
36.4375
36.0625
35.75
35.4375
35.1875
34.8125
34.375
34.0
33.625
33.3125
33.0625
32.8125
32.625
32.625
32.9375
34.125
36.6875
40.4375
43.6875
45.625
46.625
47.6875
49.5
51.625
53.0
53.125
52.1875
50.4375
48.25
46.0625
43.6875
41.875
41.125
40.6875
39.8125
38.9375
38.0
37.25
36.875
36.6875
36.4375
36.25
36.0
35.75
35.4375
35.125
34.8125
34.625
34.375
34.25
34.0
33.6875
33.4375
33.3125
33.1875
33.125
33.1875
33.3125
33.6875
34.8125
37.25
40.5625
43.5
45.625
47.25
49.125
51.75
54.5625
56.625
57.4375
57.1875
56.0
54.1875
52.25
50.125
48.4375
47.8125
47.1875
46.0
44.8125
43.5625
42.6875
42.125
41.75
41.4375
41.0625
40.5
39.875
39.3125
38.75
38.375
38.0
37.75
37.375
37.0
36.5625
36.0625
35.5625
35.1875
34.875
34.625
34.4375
34.375
34.625
35.875
38.5
42.125
45.1875
46.9375
47.875
48.9375
50.6875
52.6875
54.0625
54.3125
53.625
52.1875
50.5
48.6875
46.5625
44.75
43.75
43.5625
43.0
42.1875
41.375
40.5
39.875
39.5
39.25
39.0
38.625
38.1875
37.75
37.375
36.9375
36.5625
36.1875
35.75
35.25
34.9375
34.625
34.25
34.0625
33.8125
33.75
34.0625
35.0625
37.5
40.9375
43.875
45.625
46.625
47.625
49.3125
51.3125
52.75
53.125
52.375
50.9375
49.3125
47.5
45.625
44.125
43.5625
43.25
42.5
41.625
40.6875
39.875
39.3125
38.9375
38.625
38.3125
38.0
37.625
37.1875
36.75
36.375
36.0625
35.8125
35.5
35.1875
34.8125
34.4375
34.0
33.625
33.3125
33.0625
32.875
32.6875
32.75
33.1875
34.625
37.625
41.375
44.375
45.9375
46.9375
48.1875
50.25
52.5
53.9375
54.0625
53.25
51.75
49.875
48.0625
46.0
44.625
44.25
43.8125
42.875
41.9375
40.9375
40.125
39.6875
39.375
39.125
38.8125
38.4375
38.0
37.625
37.125
36.6875
36.4375
36.1875
35.9375
35.5625
35.0625
34.625
34.3125
34.0
33.625
33.3125
33.125
33.0625
33.1875
34.0
36.0625
39.5
43.0
45.25
46.4375
47.4375
49.125
51.375
53.25
54.0625
53.6875
52.4375
50.6875
48.8125
46.8125
45.0
44.25
44.0
43.25
42.3125
41.375
40.5
39.875
39.5625
39.3125
39.0625
38.625
38.25
37.8125
37.375
36.9375
36.5625
36.25
35.875
35.5
35.0625
34.6875
34.3125
34.0
33.75
33.5
33.25
33.1875
33.4375
34.4375
36.875
40.0
42.4375
43.75
44.375
45.375
47.1875
49.0
50.125
50.0625
49.0625
47.4375
45.625
43.75
41.875
41.0
40.9375
40.5
39.6875
39.0625
38.3125
37.9375
37.875
37.875
37.75
37.5625
37.25
36.8125
36.4375
36.1875
35.9375
35.75
35.625
35.375
35.125
34.875
34.6875
34.75
34.9375
35.25
35.625
36.25
37.5625
40.1875
43.9375
47.3125
49.4375
50.6875
52.0
53.9375
56.125
57.625
58.0
57.3125
55.9375
53.9375
51.75
49.5625
47.875
47.3125
46.8125
45.75
44.5625
43.375
42.4375
41.875
41.5625
41.375
41.0
40.5
39.9375
39.5
39.0625
38.6875
38.25
37.8125
37.375
36.875
36.3125
35.875
35.5
35.1875
34.875
34.625
34.6875
35.3125
37.0625
40.1875
43.625
46.125
47.3125
48.125
49.375
51.3125
53.125
54.0
53.75
52.75
51.125
49.4375
47.5625
45.625
44.3125
43.9375
43.5
42.6875
41.875
40.9375
40.25
39.75
39.4375
39.1875
38.8125
38.4375
38.0
37.5625
37.1875
36.8125
36.4375
36.0625
35.6875
35.25
34.875
34.5625
34.25
34.0
33.8125
33.75
33.9375
34.8125
37.0
40.375
43.5625
45.5625
46.625
47.625
49.25
51.375
53.125
53.75
53.3125
52.125
50.4375
48.625
46.6875
44.875
44.0625
43.8125
43.0625
42.25
41.375
40.5625
39.9375
39.5
39.25
39.0
38.6875
38.3125
37.8125
37.375
37.0
36.625
36.3125
36.0625
35.8125
35.4375
34.9375
34.5
34.0625
33.6875
33.4375
33.1875
33.0
32.875
32.8125
33.1875
34.5625
37.375
41.1875
44.3125
46.0
46.9375
48.1875
50.25
52.625
54.3125
54.75
54.0625
52.6875
50.8125
48.9375
46.8125
45.0625
44.5
44.25
43.5
42.5625
41.625
40.75
40.1875
39.9375
39.75
39.5625
39.1875
38.75
38.1875
37.6875
37.3125
36.9375
36.5
36.0625
35.625
35.3125
34.9375
34.625
34.4375
34.1875
34.125
34.4375
35.4375
37.875
41.375
44.3125
45.875
46.8125
48.0
49.875
52.0625
53.5
53.875
53.1875
51.75
50.0625
48.3125
46.3125
44.75
44.1875
43.75
42.9375
42.125
41.1875
40.375
39.8125
39.5625
39.3125
39.0625
38.75
38.3125
37.875
37.375
37.0
36.6875
36.375
36.0
35.625
35.1875
34.8125
34.4375
34.125
33.875
33.6875
33.6875
34.0
35.1875
37.8125
41.0625
43.375
44.5625
45.125
46.0625
47.8125
49.8125
50.9375
50.875
49.875
48.3125
46.5
44.6875
42.625
41.375
41.1875
40.875
40.0625
39.375
38.625
38.125
37.875
37.8125
37.6875
37.5
37.125
36.75
36.3125
35.9375
35.625
35.4375
35.1875
34.9375
34.6875
34.375
34.25
34.25
34.3125
34.5625
35.0
35.8125
37.4375
40.375
43.9375
47.0
49.25
50.9375
53.0
55.4375
57.625
58.8125
58.75
57.6875
55.9375
53.6875
51.4375
49.3125
48.1875
48.0
47.25
46.0625
44.875
43.75
42.9375
42.4375
42.0
41.5625
41.0
40.4375
39.9375
39.4375
39.0
38.5625
38.25
38.0
37.8125
37.6875
37.875
39.0625
41.5
44.5
46.75
47.75
48.4375
49.4375
50.9375
52.375
52.8125
52.25
51.0
49.5
48.0
46.25
44.375
43.25
42.8125
42.375
41.6875
41.0
40.1875
39.5
39.0625
38.75
38.375
38.0625
37.75
37.3125
36.8125
36.3125
36.0
35.6875
35.4375
35.1875
34.9375
34.6875
34.4375
34.1875
34.0
33.8125
33.6875
33.5625
33.3125
32.875
32.25
31.75
31.4375
31.4375
31.375
31.3125
31.3125
31.375
32.1875
34.125
37.4375
41.4375
44.75
46.5625
47.625
49.0625
51.375
53.9375
55.75
56.375
55.875
54.625
52.8125
50.875
48.75
46.75
45.9375
45.6875
44.9375
44.0
42.9375
42.0
41.4375
41.125
40.875
40.5625
40.1875
39.75
39.25
38.75
38.375
37.875
37.375
36.875
36.5
36.1875
35.875
35.625
35.4375
35.3125
35.5
36.4375
38.6875
41.8125
44.25
45.75
46.625
47.8125
49.625
51.625
53.0
53.3125
52.5625
51.1875
49.625
47.875
45.9375
44.4375
43.875
43.5
42.6875
41.875
40.9375
40.1875
39.6875
39.3125
39.0625
38.8125
38.4375
38.0625
37.625
37.1875
36.8125
36.4375
36.125
35.75
35.3125
34.9375
34.625
34.3125
34.0625
33.8125
33.6875
33.9375
34.8125
36.875
40.1875
43.5625
45.625
46.75
47.75
49.4375
51.6875
53.5
54.375
54.125
53.0
51.375
49.625
47.6875
45.75
44.625
44.25
43.6875
42.8125
41.875
40.9375
40.3125
39.9375
39.6875
39.4375
39.0625
38.625
38.1875
37.75
37.3125
36.875
36.5
36.125
35.75
35.375
35.0
34.625
34.375
34.1875
34.125
34.25
35.125
37.25
40.5625
43.5625
45.4375
46.5
47.5
49.1875
51.375
53.1875
53.875
53.4375
52.25
50.5
48.625
46.3125
44.0625
42.625
42.0
41.125
40.0625
39.0
37.9375
37.125
36.625
36.3125
36.0625
35.75
35.375
34.875
34.4375
34.0625
33.6875
33.375
33.125
32.9375
32.6875
32.4375
32.25
32.0625
31.875
31.8125
31.8125
32.0625
33.0
35.1875
38.1875
40.75
42.4375
43.6875
45.3125
47.5
49.8125
51.4375
52.0
51.6875
50.6875
49.3125
47.75
46.125
45.3125
45.6875
45.9375
45.5
45.0
44.5625
44.4375
44.5
44.625
44.5625
44.0625
43.25
42.3125
41.375
40.5625
39.875
39.4375
39.0625
38.6875
38.375
37.9375
37.5625
37.125
36.75
36.1875
35.625
35.125
34.6875
34.4375
34.1875
34.0
33.875
33.875
34.3125
35.75
38.625
42.4375
45.9375
48.1875
49.1875
50.1875
51.8125
53.9375
55.4375
55.875
55.375
54.1875
52.4375
50.6875
48.6875
46.6875
45.625
45.3125
44.75
43.8125
42.9375
42.0
41.25
40.75
40.375
40.0625
39.6875
39.25
38.75
38.25
37.75
37.1875
36.6875
36.25
35.9375
35.6875
35.5
35.375
35.375
35.875
37.5
40.375
43.3125
45.25
46.3125
47.0625
48.4375
50.25
51.8125
52.4375
51.9375
50.75
49.1875
47.5625
45.75
44.0
43.125
42.75
42.1875
41.4375
40.625
39.8125
39.1875
38.75
38.4375
38.125
37.75
37.375
37.0
36.5625
36.1875
35.875
35.625
35.3125
35.0625
34.6875
34.25
33.875
33.5
33.1875
32.9375
32.6875
32.6875
32.8125
33.625
35.75
39.125
42.625
45.0625
46.25
47.1875
48.75
50.9375
52.875
53.8125
53.6875
52.8125
51.25
49.5625
47.6875
45.625
44.3125
44.0625
43.6875
42.8125
42.0
41.0625
40.1875
39.6875
39.4375
39.125
38.8125
38.4375
38.0
37.5625
37.0625
36.75
36.375
36.0
35.5625
35.125
34.8125
34.4375
34.0625
33.8125
33.5625
33.5625
33.8125
34.625
36.75
40.125
43.3125
45.25
46.3125
47.3125
49.0
51.125
52.9375
53.6875
53.375
52.1875
50.5
48.8125
46.875
44.9375
43.9375
43.625
43.0625
42.125
41.25
40.375
39.6875
39.25
39.0625
38.8125
38.5
38.125
37.6875
37.1875
36.8125
36.4375
36.0625
35.6875
35.3125
34.875
34.5625
34.1875
33.8125
33.625
33.4375
33.4375
33.75
34.9375
37.625
41.1875
44.125
45.6875
46.5625
47.75
49.75
51.9375
53.4375
53.75
53.125
51.75
50.0625
48.375
46.375
44.5625
43.8125
43.5
42.8125
41.875
40.9375
40.0
39.375
38.8125
38.375
37.875
37.25
36.625
35.9375
35.125
34.3125
33.6875
33.125
32.5625
32.0625
31.6875
31.25
31.0
30.75
30.5625
30.5
30.625
31.5625
33.9375
37.125
39.875
41.75
43.0
44.5
46.5625
48.875
50.5
51.0625
50.625
49.5625
48.1875
46.75
45.0
43.5625
43.1875
43.25
42.75
42.3125
41.8125
41.4375
41.375
41.5
41.5625
41.6875
41.6875
41.375
41.0
40.5
40.0
39.375
38.8125
38.25
37.6875
37.125
36.625
36.0625
35.5625
35.1875
34.9375
34.8125
35.1875
36.5
39.1875
42.625
45.75
47.5625
48.5625
49.5
51.0
52.875
54.3125
54.6875
54.125
52.875
51.25
49.6875
47.875
45.8125
44.25
43.625
43.25
42.5625
41.8125
40.9375
40.125
39.5
39.1875
38.9375
38.6875
38.3125
37.875
37.4375
37.0625
36.6875
36.1875
35.6875
35.25
34.875
34.5625
34.25
34.0
33.875
33.9375
34.375
36.0
39.0
42.375
44.75
46.0
46.8125
48.0
49.875
51.75
52.75
52.6875
51.75
50.25
48.625
46.875
45.0
43.5
42.9375
42.5625
41.8125
41.0625
40.1875
39.4375
38.875
38.5625
38.1875
37.875
37.5
37.125
36.6875
36.25
35.8125
35.5625
35.25
35.0
34.75
34.5
34.25
34.0
33.5625
33.125
32.625
32.3125
32.0625
31.875
31.6875
31.5
31.4375
31.625
32.5
34.6875
38.3125
42.125
44.8125
46.1875
47.125
48.75
51.1875
53.4375
54.625
54.5625
53.6875
52.0625
50.25
48.3125
46.25
44.9375
44.5625
44.125
43.1875
42.1875
41.1875
40.4375
40.0
39.75
39.4375
39.125
38.6875
38.25
37.8125
37.375
36.875
36.375
35.875
35.5
35.25
34.9375
34.6875
34.625
34.75
35.3125
37.0
40.0
42.9375
44.875
45.875
46.6875
48.125
50.0625
51.6875
52.375
52.0625
50.9375
49.375
47.75
45.875
44.0625
43.125
42.75
42.1875
41.4375
40.5625
39.6875
39.0
38.625
38.375
38.0625
37.75
37.4375
37.0625
36.5625
36.125
35.8125
35.5625
35.25
34.9375
34.5
34.0625
33.75
33.375
33.0625
32.875
32.75
32.6875
33.125
34.4375
37.25
40.875
43.875
45.5625
46.5
47.6875
49.625
51.8125
53.4375
53.875
53.3125
51.9375
50.3125
48.5625
46.5625
44.75
43.875
43.625
42.875
41.9375
40.9375
39.9375
39.125
38.5625
37.9375
37.3125
36.625
35.9375
35.1875
34.4375
33.75
33.125
32.625
32.1875
31.8125
31.5
31.25
31.0
30.8125
30.6875
30.6875
30.875
31.5625
33.4375
36.5
39.5625
41.6875
43.125
44.5
46.375
48.75
50.625
51.5
51.25
50.3125
49.0
47.625
45.875
44.25
43.625
43.8125
43.625
43.0625
42.5625
42.0625
41.9375
42.0625
42.1875
42.1875
41.9375
41.5625
41.0
40.3125
39.625
39.0
38.5
38.0625
37.6875
37.1875
36.625
36.0625
35.625
35.125
34.875
34.625
34.5
34.8125
36.0
38.5625
42.0625
45.3125
47.1875
48.125
49.0
50.5
52.375
53.9375
54.375
53.875
52.6875
51.125
49.5625
47.6875
45.625
44.125
43.625
43.25
42.5625
41.75
40.875
40.125
39.5625
39.1875
38.875
38.6875
38.3125
37.875
37.375
37.0
36.5625
36.1875
35.875
35.375
34.9375
34.625
34.25
33.9375
33.6875
33.4375
33.4375
33.75
34.875
37.3125
40.75
43.625
45.3125
46.25
47.25
48.9375
51.0
52.5
52.875
52.3125
51.0
49.4375
47.75
45.8125
43.9375
42.8125
42.5
42.125
41.375
40.5
39.625
38.9375
38.5
38.25
38.0
37.75
37.375
37.0
36.5625
36.1875
35.875
35.5
35.1875
34.8125
34.375
34.0
33.625
33.3125
33.0625
32.875
32.8125
32.9375
33.6875
35.75
39.0625
42.5
44.75
45.875
46.75
48.25
50.4375
52.375
53.25
53.0625
52.0
50.375
48.6875
46.75
44.8125
43.5625
43.25
42.8125
41.9375
41.125
40.1875
39.4375
39.0
38.6875
38.5
38.25
37.875
37.4375
37.0
36.5625
36.1875
35.8125
35.4375
35.0
34.6875
34.3125
34.0
33.75
33.5
33.3125
33.3125
33.875
35.4375
38.375
41.75
44.25
45.4375
46.3125
47.625
49.5625
51.5625
52.75
52.8125
52.0625
50.625
49.0625
47.375
45.375
43.8125
43.25
42.875
42.125
41.25
40.375
39.5625
39.125
38.8125
38.4375
38.1875
37.875
37.5625
37.125
36.6875
36.3125
35.9375
35.5
35.0625
34.6875
34.375
34.125
33.8125
33.5625
33.4375
33.4375
33.875
35.3125
38.1875
41.5625
44.0625
45.4375
46.375
47.625
49.5
51.5625
52.8125
53.0
52.25
50.875
49.3125
47.5625
45.625
44.0
43.25
42.9375
42.3125
41.4375
40.5625
39.75
39.25
38.875
38.625
38.3125
38.0
37.625
37.1875
36.75
36.375
36.0
35.625
35.1875
34.8125
34.375
34.0625
33.75
33.5625
33.375
33.3125
33.6875
34.8125
37.375
40.8125
43.6875
45.25
46.125
47.125
48.8125
50.875
52.1875
52.3125
51.4375
49.75
47.8125
45.875
43.75
41.6875
40.5
40.0625
39.3125
38.5
37.6875
36.875
36.3125
36.0
35.75
35.5625
35.3125
35.0
34.6875
34.375
34.125
33.9375
33.75
33.625
33.5
33.25
33.0
32.75
32.5625
32.4375
32.375
32.4375
32.5
32.75
33.1875
34.4375
37.0625
40.5625
43.6875
45.875
47.5625
49.5625
52.25
55.125
57.25
58.125
57.9375
56.9375
55.125
53.0
50.625
48.625
47.8125
47.4375
46.4375
45.1875
43.9375
43.0
42.375
41.9375
41.5625
41.125
40.6875
40.125
39.5625
39.0
38.5625
38.25
37.9375
37.5625
37.125
36.625
36.125
35.6875
35.3125
35.0
34.75
34.5
34.5
34.875
36.1875
38.9375
42.375
45.1875
46.6875
47.5
48.5625
50.3125
52.3125
53.5625
53.6875
53.0
51.625
50.125
48.5
46.5625
44.75
43.75
43.4375
42.8125
42.0625
41.1875
40.3125
39.625
39.25
39.0
38.6875
38.375
37.9375
37.5625
37.125
36.75
36.375
36.0
35.5
35.0625
34.75
34.5
34.1875
33.9375
33.75
33.8125
34.375
35.9375
38.875
42.25
44.5625
45.75
46.5625
47.875
49.75
51.6875
52.75
52.6875
51.8125
50.375
48.875
47.0625
45.125
43.625
43.0625
42.75
42.0625
41.3125
40.375
39.625
39.125
38.8125
38.5625
38.25
38.0
37.5625
37.0625
36.6875
36.3125
36.0
35.625
35.1875
34.8125
34.4375
34.125
33.8125
33.625
33.4375
33.375
33.75
34.75
37.25
40.6875
43.625
45.25
46.1875
47.25
49.0
51.1875
52.75
53.1875
52.75
51.5
50.0
48.3125
46.4375
44.625
43.6875
43.3125
42.75
41.9375
41.0625
40.1875
39.5625
39.1875
38.9375
38.6875
38.375
38.0
37.5625
37.125
36.75
36.375
36.0625
35.6875
35.25
34.875
34.5
34.1875
33.875
33.625
33.5
33.625
34.3125
36.0625
39.1875
42.625
44.875
46.0625
47.0
48.375
50.5
52.4375
53.5
53.4375
52.5
50.9375
49.25
47.4375
45.4375
44.0625
43.6875
43.3125
42.4375
41.5625
40.625
39.875
39.375
39.0
38.5
37.9375
37.1875
36.5625
35.8125
35.0
34.25
33.5625
33.0625
32.5625
32.125
31.625
31.1875
30.9375
30.6875
30.4375
30.3125
30.3125
30.375
30.6875
31.6875
34.125
37.3125
40.375
42.4375
43.8125
45.3125
47.5625
50.0
51.75
52.4375
52.125
51.125
49.75
48.1875
46.3125
44.8125
44.625
44.75
44.3125
43.75
43.1875
42.8125
42.6875
42.8125
42.9375
42.875
42.5625
42.1875
41.5625
40.8125
40.125
39.5625
39.125
38.75
38.375
37.8125
37.1875
36.6875
36.1875
35.6875
35.375
35.125
34.9375
34.9375
35.5625
37.3125
40.4375
44.0625
46.8125
48.1875
49.0
50.25
52.125
54.0
55.0
54.8125
53.9375
52.375
50.6875
48.9375
46.875
45.0625
44.3125
44.0625
43.5
42.6875
41.8125
41.0
40.4375
40.0625
39.75
39.5
39.125
38.6875
38.3125
37.8125
37.375
36.9375
36.4375
36.0
35.625
35.3125
35.0625
34.8125
34.625
34.625
35.0
36.5
39.375
42.6875
45.0
46.1875
47.0
48.25
50.125
51.9375
52.875
52.75
51.875
50.375
48.8125
47.125
45.25
43.8125
43.25
42.875
42.125
41.375
40.5625
39.8125
39.375
39.0
38.75
38.5
38.1875
37.8125
37.375
36.875
36.5625
36.1875
35.8125
35.375
35.0
34.6875
34.3125
34.0625
33.8125
33.6875
33.625
34.0
35.3125
38.0
41.375
44.125
45.625
46.5
47.6875
49.625
51.75
53.1875
53.5
52.9375
51.625
50.0625
48.4375
46.4375
44.625
43.6875
43.4375
42.8125
42.0
41.125
40.25
39.625
39.3125
39.0
38.75
38.4375
38.0625
37.625
37.1875
36.8125
36.4375
36.0625
35.6875
35.25
34.875
34.5
34.1875
33.9375
33.6875
33.6875
33.875
34.75
36.9375
40.25
43.3125
45.25
46.1875
47.1875
48.875
51.0
52.8125
53.5
53.25
52.125
50.5625
49.0
47.1875
45.25
44.0625
43.625
43.125
42.25
41.4375
40.625
39.875
39.375
39.0625
38.75
38.4375
38.0625
37.625
37.25
36.8125
36.5
36.1875
35.9375
35.625
35.25
34.875
34.4375
34.0625
33.6875
33.4375
33.1875
33.0
33.0
33.25
34.3125
36.8125
40.375
43.5625
45.375
46.1875
47.0
48.4375
50.375
51.9375
52.375
51.6875
50.3125
48.375
46.375
44.25
42.25
41.3125
41.125
40.5
39.6875
38.875
38.125
37.75
37.5625
37.4375
37.25
37.0625
36.75
36.375
36.0
35.625
35.3125
35.0
34.8125
34.625
34.3125
34.0625
34.0
34.0
34.0
34.25
34.875
36.4375
39.375
42.6875
45.1875
47.0625
48.875
51.125
53.75
56.0625
57.5
57.875
57.1875
55.5625
53.625
51.5
49.25
47.6875
47.125
46.5625
45.5
44.375
43.25
42.375
41.75
41.4375
41.0625
40.625
40.125
39.6875
39.1875
38.6875
38.3125
37.9375
37.5625
37.1875
36.6875
36.1875
35.8125
35.375
35.0625
34.8125
34.5625
34.5625
35.125
36.8125
39.9375
43.3125
45.8125
47.0625
47.9375
49.1875
51.0625
52.9375
54.0
53.9375
53.125
51.75
50.1875
48.5
46.5
44.6875
43.75
43.4375
42.875
42.125
41.25
40.375
39.75
39.375
39.0625
38.75
38.4375
38.0625
37.6875
37.25
36.75
36.375
35.9375
35.4375
35.125
34.8125
34.5625
34.3125
34.0625
34.0625
34.4375
35.75
38.5
41.9375
44.4375
45.8125
46.625
47.8125
49.625
51.625
52.8125
52.9375
52.0625
50.75
49.25
47.625
45.6875
44.0625
43.3125
43.0
42.3125
41.5625
40.75
39.9375
39.3125
38.9375
38.625
38.3125
37.9375
37.5625
37.1875
36.75
36.375
36.0
35.625
35.3125
34.875
34.4375
34.125
33.8125
33.5625
33.375
33.1875
33.3125
34.0625
36.0
39.1875
42.5
44.6875
45.8125
46.75
48.25
50.375
52.3125
53.25
53.1875
52.3125
50.8125
49.3125
47.5625
45.5625
44.0625
43.5
43.125
42.3125
41.5
40.625
39.8125
39.3125
39.0
38.6875
38.375
38.0625
37.6875
37.25
36.75
36.4375
36.125
35.8125
35.4375
35.0
34.625
34.25
33.875
33.5625
33.375
33.125
33.0625
33.3125
34.25
36.5
39.875
43.125
45.1875
46.25
47.25
48.9375
51.1875
53.0
53.75
53.4375
52.3125
50.6875
49.0625
47.1875
45.25
44.0
43.6875
43.0625
42.1875
41.375
40.4375
39.75
39.3125
39.125
38.8125
38.5
38.125
37.6875
37.25
36.875
36.5
36.0625
35.6875
35.25
34.875
34.5
34.1875
33.9375
33.6875
33.5625
33.75
34.4375
36.3125
39.5625
42.6875
44.6875
45.5
46.125
47.3125
49.0
50.4375
51.0625
50.5625
49.25
47.5
45.6875
43.6875
41.75
40.5625
40.3125
39.8125
39.0625
38.375
37.625
37.0
36.75
36.5625
36.4375
36.25
36.0625
35.625
35.25
34.875
34.625
34.3125
34.0625
33.875
33.6875
33.5
33.3125
33.25
33.25
33.5
33.875
34.8125
36.875
40.0
43.125
45.5625
47.4375
49.3125
51.75
54.4375
56.625
57.75
57.8125
56.875
55.125
53.125
50.9375
48.75
47.5625
47.1875
46.3125
45.1875
44.125
43.0625
42.25
41.6875
41.3125
40.9375
40.5
40.0625
39.5625
39.0625
38.625
38.25
37.8125
37.375
36.9375
36.5
36.0625
35.625
35.25
34.9375
34.6875
34.5
34.75
35.875
38.4375
41.875
44.8125
46.5
47.375
48.3125
49.9375
51.875
53.25
53.625
53.125
51.875
50.375
48.8125
46.9375
45.0
43.625
43.1875
42.8125
42.0625
41.3125
40.4375
39.6875
39.1875
38.875
38.5
38.1875
37.875
37.5
37.0
36.625
36.1875
35.75
35.375
35.0
34.625
34.375
34.125
33.9375
33.8125
33.9375
34.75
36.8125
40.125
43.1875
45.0625
46.0625
46.9375
48.4375
50.5
52.125
52.6875
52.3125
51.125
49.625
48.125
46.3125
44.4375
43.3125
43.0
42.4375
41.625
40.8125
40.0
39.3125
38.75
38.5
38.1875
37.875
37.5625
37.125
36.6875
36.375
36.0
35.625
35.25
34.875
34.4375
34.0625
33.75
33.5
33.3125
33.125
33.0
33.25
34.25
36.625
40.0
43.125
44.9375
45.9375
46.9375
48.625
50.75
52.5
53.1875
52.875
51.8125
50.3125
48.6875
46.9375
44.9375
43.5625
43.125
42.6875
41.9375
41.125
40.25
39.5
38.9375
38.5625
38.25
38.0
37.6875
37.3125
36.875
36.4375
36.0625
35.75
35.5
35.25
35.0
34.625
34.25
33.8125
33.375
33.0625
32.8125
32.5625
32.3125
32.1875
32.125
32.5
33.6875
36.25
39.9375
43.25
45.25
46.25
47.375
49.1875
51.5625
53.375
54.125
53.8125
52.6875
51.0625
49.3125
47.375
45.4375
44.4375
44.0625
43.4375
42.5625
41.625
40.6875
40.0625
39.625
39.375
39.0
38.6875
38.3125
37.875
37.4375
37.0
36.625
36.1875
35.6875
35.3125
35.0
34.625
34.375
34.1875
34.0625
34.1875
34.9375
36.9375
40.125
43.0625
44.875
45.8125
46.75
48.4375
50.4375
52.0
52.5625
52.0625
50.75
49.0
47.125
44.9375
42.8125
41.5625
40.9375
40.0625
39.0
37.9375
36.9375
36.3125
35.8125
35.5
35.1875
34.9375
34.5625
34.1875
33.875
33.5
33.1875
32.9375
32.75
32.5625
32.3125
32.125
31.9375
31.8125
31.75
31.8125
31.9375
32.375
33.625
36.0625
39.0625
41.5625
43.1875
44.5
45.9375
47.9375
50.0
51.375
51.625
51.0
49.625
48.0
46.125
44.125
42.75
42.5
42.375
41.6875
41.0
40.375
39.875
39.75
39.8125
39.6875
39.5
39.25
38.9375
38.6875
38.4375
38.4375
38.5625
38.75
38.9375
39.0625
39.0625
39.125
39.1875
39.125
39.0
38.8125
38.5625
38.75
39.9375
42.5
45.6875
48.3125
49.75
50.5625
51.75
53.6875
55.6875
57.125
57.4375
56.875
55.6875
54.0
52.0625
50.0625
47.9375
46.4375
46.0
45.5625
44.625
43.6875
42.75
41.9375
41.375
41.0625
40.6875
40.3125
39.875
39.375
38.8125
38.25
37.75
37.25
36.75
36.375
36.0625
35.6875
35.4375
35.25
35.1875
35.5
36.5
38.875
42.1875
45.125
46.75
47.5625
48.375
49.875
51.6875
53.0
53.125
52.4375
51.1875
49.625
48.0625
46.1875
44.4375
43.3125
42.9375
42.5
41.8125
41.0625
40.1875
39.5
39.0625
38.6875
38.4375
38.1875
37.8125
37.375
37.0
36.5625
36.25
35.875
35.4375
35.0
34.625
34.3125
34.0625
33.8125
33.625
33.5625
33.6875
34.5
36.5
39.75
43.0625
45.1875
46.1875
47.0625
48.5
50.5
52.25
53.0625
52.875
51.8125
50.375
48.9375
47.1875
45.25
43.8125
43.3125
42.9375
42.1875
41.375
40.5
39.6875
39.1875
38.875
38.5625
38.25
37.9375
37.5625
37.1875
36.75
36.375
36.0625
35.6875
35.3125
34.9375
34.5
34.125
33.8125
33.5625
33.375
33.25
33.3125
33.8125
35.3125
38.25
41.6875
44.1875
45.5
46.375
47.6875
49.75
51.75
53.0
53.125
52.4375
51.125
49.5625
47.9375
46.0
44.1875
43.25
42.9375
42.3125
41.5
40.625
39.8125
39.3125
38.875
38.625
38.375
38.0625
37.75
37.375
37.0
36.6875
36.375
36.0
35.625
35.125
34.75
34.4375
34.0625
33.8125
33.625
33.5
33.4375
34.0
35.5625
38.4375
41.8125
44.25
45.5625
46.4375
47.75
49.6875
51.6875
52.875
53.0
52.25
50.8125
49.3125
47.6875
45.8125
44.1875
43.5
43.1875
42.5625
41.8125
40.9375
40.1875
39.5625
39.1875
38.875
38.625
38.25
37.875
37.4375
37.0
36.6875
36.3125
35.9375
35.5625
35.0625
34.75
34.4375
34.125
33.875
33.6875
33.5625
33.75
34.5625
36.5625
39.875
42.9375
44.875
45.9375
46.875
48.5
50.625
52.4375
53.1875
52.9375
51.9375
50.4375
48.9375
47.1875
45.1875
43.75
43.3125
42.875
42.125
41.3125
40.4375
39.75
39.25
38.9375
38.625
38.375
38.0625
37.75
37.3125
36.875
36.5
36.0625
35.625
35.25
34.9375
34.5625
34.25
34.0
33.8125
33.6875
33.8125
34.5
36.375
39.5625
42.6875
44.6875
45.625
46.3125
47.5
49.1875
50.625
51.1875
50.75
49.5625
47.8125
46.0
44.0
41.875
40.5
40.125
39.75
39.0625
38.3125
37.625
37.0
36.75
36.625
36.5625
36.4375
36.25
36.0
35.6875
35.375
35.1875
34.9375
34.75
34.5625
34.3125
34.125
33.875
33.8125
33.875
34.0625
34.4375
35.375
37.5
40.625
43.625
45.9375
47.6875
49.5625
51.9375
54.5625
56.5625
57.625
57.625
56.625
54.875
52.9375
50.875
48.6875
47.375
46.9375
46.25
45.125
44.0
42.9375
42.125
41.625
41.3125
40.875
40.4375
40.0
39.5
39.0625
38.625
38.25
37.875
37.4375
36.9375
36.5
36.0625
35.6875
35.375
35.125
34.875
34.8125
35.25
36.6875
39.5625
42.9375
45.5625
46.875
47.6875
48.875
50.625
52.5
53.625
53.6875
52.9375
51.625
50.125
48.5625
46.625
44.75
43.625
43.25
42.8125
42.125
41.3125
40.4375
39.8125
39.3125
39.0
38.75
38.4375
38.0625
37.625
37.25
36.8125
36.4375
36.0
35.5625
35.1875
34.9375
34.5625
34.25
34.0625
33.8125
33.8125
34.3125
35.75
38.5625
41.9375
44.5
45.8125
46.625
47.75
49.625
51.6875
52.9375
53.125
52.4375
51.125
49.625
48.0
46.125
44.3125
43.5
43.1875
42.5625
41.75
40.9375
40.0625
39.4375
39.0
38.6875
38.375
38.0625
37.6875
37.25
36.8125
36.375
36.0625
35.6875
35.4375
35.1875
34.9375
34.6875
34.4375
34.25
33.9375
33.5625
33.1875
32.8125
32.375
32.125
31.875
31.6875
31.5625
31.5
31.5
32.0625
33.75
36.8125
40.6875
43.9375
45.75
46.875
48.1875
50.3125
52.8125
54.625
55.1875
54.6875
53.5625
51.875
50.0
47.9375
45.875
44.9375
44.75
44.125
43.25
42.3125
41.4375
40.75
40.3125
40.0625
39.8125
39.5
39.125
38.625
38.0
37.4375
36.9375
36.5625
36.25
36.0
35.8125
35.625
35.625
35.875
36.9375
39.4375
42.3125
44.5
45.625
46.4375
47.6875
49.4375
51.125
52.0
51.875
50.9375
49.5
48.0625
46.4375
44.625
43.375
42.9375
42.5
41.75
40.9375
40.125
39.625
39.25
39.0
38.75
38.375
38.0
37.5625
37.125
36.6875
36.3125
36.0
35.625
35.25
34.875
34.5
34.1875
33.875
33.625
33.5
33.5
33.9375
35.25
38.0
41.5
44.1875
45.625
46.5625
47.75
49.75
51.9375
53.4375
53.8125
53.3125
52.125
50.6875
49.125
47.1875
45.3125
44.1875
43.8125
43.1875
42.25
41.1875
40.125
39.1875
38.5
37.875
37.1875
36.5
35.8125
35.25
34.5625
34.0
33.5
33.0
32.5625
32.25
32.0
31.75
31.5625
31.4375
31.4375
31.5
31.8125
32.75
34.75
37.625
40.3125
42.25
43.6875
45.125
47.1875
49.5625
51.4375
52.3125
52.25
51.4375
50.3125
49.0625
47.4375
45.875
45.125
45.25
45.125
44.5
44.0
43.5
43.25
43.1875
43.0625
42.75
42.375
41.8125
41.0625
40.3125
39.75
39.25
38.875
38.4375
38.0
37.4375
36.9375
36.375
35.875
35.4375
35.1875
35.0
35.0625
35.8125
37.6875
40.8125
44.25
46.75
48.0625
48.875
50.0625
51.9375
53.75
54.75
54.75
53.875
52.5
51.0625
49.4375
47.5
45.5625
44.3125
43.9375
43.5
42.8125
41.9375
41.0625
40.375
39.9375
39.625
39.3125
38.9375
38.5625
38.125
37.75
37.3125
36.875
36.375
35.9375
35.5625
35.125
34.8125
34.5625
34.3125
34.1875
34.1875
34.75
36.5
39.625
42.875
45.0
46.125
47.0625
48.4375
50.4375
52.3125
53.25
53.125
52.1875
50.6875
49.125
47.375
45.4375
43.9375
43.375
43.0
42.25
41.4375
40.5625
39.75
39.25
38.9375
38.625
38.3125
38.0
37.625
37.1875
36.75
36.5
36.125
35.75
35.4375
35.0625
34.625
34.25
33.875
33.5625
33.3125
33.25
33.25
33.625
34.8125
37.4375
40.875
43.75
45.375
46.3125
47.5
49.3125
51.5
53.125
53.6875
53.1875
52.0
50.5625
49.0
47.0625
45.125
43.9375
43.5625
43.0
42.1875
41.3125
40.5
39.8125
39.375
39.0625
38.75
38.4375
38.0625
37.6875
37.3125
36.875
36.4375
35.9375
35.5
35.125
34.75
34.4375
34.125
33.875
33.75
33.75
34.125
35.5625
38.3125
41.6875
44.1875
45.5625
46.4375
47.6875
49.625
51.625
52.9375
53.1875
52.5
51.1875
49.6875
48.0625
46.1875
44.5
43.6875
43.3125
42.5
41.6875
40.8125
40.0625
39.5
39.0625
38.8125
38.5
38.1875
37.8125
37.4375
37.0
36.5625
36.1875
35.8125
35.375
34.875
34.625
34.3125
34.0625
33.875
33.625
33.75
34.3125
35.875
38.8125
42.0
44.0625
45.0625
45.5625
46.5
48.125
49.8125
50.6875
50.5
49.4375
47.8125
46.0625
44.3125
42.3125
40.875
40.375
40.0625
39.375
38.625
37.9375
37.4375
37.125
37.0
36.9375
36.8125
36.625
36.3125
35.9375
35.625
35.3125
35.0625
34.875
34.6875
34.5
34.3125
34.1875
34.1875
34.3125
34.5625
35.25
36.625
39.125
42.375
45.25
47.375
49.125
51.0
53.3125
55.625
57.25
57.75
57.25
55.875
54.0625
52.1875
50.0625
48.0
46.875
46.5
45.6875
44.625
43.5
42.4375
41.625
41.125
40.8125
40.4375
40.0625
39.625
39.125
38.6875
38.25
37.875
37.5
37.0625
36.625
36.125
35.75
35.3125
34.9375
34.625
34.375
34.3125
34.6875
35.9375
38.625
42.0625
44.9375
46.5625
47.375
48.4375
50.1875
52.0625
53.375
53.75
53.1875
52.0
50.5
49.0
47.0625
45.125
43.6875
43.25
42.8125
42.0625
41.25
40.375
39.625
39.125
38.8125
38.5
38.1875
37.875
37.5
37.125
36.6875
36.3125
35.9375
35.5625
35.125
34.6875
34.375
34.0625
33.75
33.5625
33.3125
33.3125
33.8125
35.375
38.25
41.6875
44.1875
45.625
46.4375
47.6875
49.4375
51.5
52.75
52.9375
52.25
50.9375
49.4375
47.8125
45.875
44.0625
43.0625
42.625
42.0625
41.25
40.4375
39.6875
39.0625
38.6875
38.375
38.125
37.9375
37.625
37.1875
36.75
36.4375
36.0625
35.6875
35.3125
34.875
34.4375
34.0625
33.75
33.5
33.3125
33.1875
33.25
33.8125
35.5625
38.625
41.875
44.1875
45.375
46.3125
47.6875
49.6875
51.6875
52.8125
52.875
52.1875
50.8125
49.375
47.6875
45.75
44.0
43.25
42.9375
42.1875
41.375
40.5
39.6875
39.1875
38.8125
38.5
38.25
37.9375
37.5625
37.1875
36.75
36.375
36.0
35.5625
35.125
34.75
34.375
34.0625
33.75
33.5625
33.4375
33.5625
34.125
35.75
38.75
42.0
44.25
45.4375
46.3125
47.6875
49.6875
51.625
52.75
52.6875
51.9375
50.5625
49.0625
47.4375
45.5
43.875
43.1875
42.8125
42.0625
41.1875
40.3125
39.5625
39.0625
38.6875
38.375
38.125
37.875
37.5
37.0625
36.6875
36.25
35.8125
35.375
34.9375
34.5
34.0
33.5
32.9375
32.375
31.9375
31.6875
32.0
33.5
36.25
39.125
41.125
42.1875
43.0
44.3125
46.1875
47.875
48.6875
48.4375
47.4375
46.25
44.9375
43.25
41.5625
40.5
40.375
40.25
39.75
39.25
38.6875
38.1875
37.875
37.8125
37.75
37.6875
37.4375
37.1875
36.9375
36.75
36.75
36.75
36.8125
36.8125
36.875
36.9375
37.0
37.125
37.25
37.4375
37.8125
38.9375
41.3125
44.375
46.875
48.375
49.1875
50.3125
52.0625
54.1875
55.75
56.25
55.75
54.625
53.125
51.3125
49.4375
47.375
45.75
45.0625
44.625
43.8125
42.875
41.9375
41.125
40.5625
40.1875
39.875
39.5
39.0625
38.625
38.125
37.625
37.1875
36.6875
36.25
35.8125
35.4375
35.0625
34.6875
34.4375
34.1875
34.0625
34.25
35.0625
37.0625
40.375
43.5625
45.625
46.5625
47.375
48.75
50.625
52.25
53.0
52.75
51.75
50.3125
48.875
47.125
45.1875
43.625
42.875
42.5625
41.9375
41.1875
40.3125
39.5
38.9375
38.5625
38.1875
37.875
37.5625
37.25
36.8125
36.4375
36.0625
35.6875
35.3125
34.875
34.5
34.1875
33.875
33.5625
33.375
33.1875
33.125
33.375
34.375
36.8125
40.1875
43.1875
44.875
45.8125
46.8125
48.5
50.5625
52.125
52.6875
52.3125
51.1875
49.75
48.1875
46.375
44.5625
43.375
42.9375
42.4375
41.625
40.8125
39.9375
39.25
38.75
38.5
38.25
37.9375
37.5625
37.1875
36.75
36.375
35.9375
35.5625
35.125
34.625
34.3125
34.0
33.75
33.5
33.3125
33.3125
33.75
35.1875
38.0
41.25
43.625
45.0
45.875
47.125
49.0
51.0
52.25
52.375
51.625
50.375
48.9375
47.375
45.375
43.5625
42.625
42.3125
41.75
40.9375
40.125
39.3125
38.6875
38.3125
38.0
37.75
37.5
37.1875
36.8125
36.375
35.9375
35.5625
35.1875
34.75
34.375
34.0625
33.75
33.5
33.25
33.125
33.25
33.9375
35.8125
38.9375
42.1875
44.3125
45.375
46.25
47.6875
49.625
51.5
52.4375
52.4375
51.5625
50.125
48.625
46.9375
45.0625
43.5
42.8125
42.4375
41.75
41.0
40.125
39.375
38.8125
38.375
38.125
37.8125
37.5
37.1875
36.8125
36.375
36.0
35.5625
35.125
34.6875
34.3125
34.0
33.6875
33.3125
32.9375
32.6875
32.625
33.1875
35.0
37.875
40.4375
42.0
42.75
43.625
45.125
46.875
48.1875
48.5
48.0
46.875
45.5625
44.125
42.3125
40.625
39.6875
39.5625
39.3125
38.8125
38.3125
37.75
37.3125
37.125
37.0
36.9375
36.75
36.5625
36.3125
36.0
35.75
35.5625
35.4375
35.3125
35.125
35.0625
35.0625
35.125
35.25
35.4375
35.6875
36.0
36.375
37.125
38.5625
41.3125
44.625
47.25
48.5625
49.375
50.5
52.375
54.5625
56.125
56.6875
56.25
55.125
53.5
51.625
49.6875
47.5625
46.0
45.5
45.0
44.0625
43.125
42.125
41.375
40.875
40.5625
40.1875
39.8125
39.375
38.875
38.375
38.0
37.5
37.0
36.5625
36.125
35.625
35.25
34.8125
34.5625
34.4375
34.375
34.625
35.5625
37.875
41.125
44.0625
45.75
46.625
47.4375
48.9375
50.75
52.25
52.6875
52.1875
51.0625
49.5625
48.0625
46.3125
44.4375
43.0
42.5625
42.1875
41.4375
40.6875
39.875
39.125
38.625
38.3125
38.0625
37.75
37.4375
37.125
36.75
36.25
35.8125
35.4375
35.0625
34.625
34.25
34.0
33.6875
33.4375
33.25
33.1875
33.375
34.3125
36.5
39.8125
42.8125
44.625
45.5625
46.5
48.125
50.1875
51.8125
52.375
52.0
50.9375
49.5
48.0625
46.3125
44.4375
43.125
42.6875
42.1875
41.4375
40.6875
39.9375
39.25
38.75
38.375
38.0625
37.75
37.4375
37.125
36.75
36.3125
35.875
35.4375
35.0
34.625
34.3125
34.0
33.75
33.5625
33.375
33.5
34.0
35.625
38.625
41.875
44.0625
45.1875
46.0625
47.375
49.3125
51.125
52.125
52.0625
51.25
49.875
48.4375
46.8125
44.875
43.25
42.625
42.3125
41.6875
40.9375
40.125
39.3125
38.75
38.375
38.0625
37.8125
37.4375
37.125
36.75
36.4375
35.9375
35.5625
35.1875
34.75
34.375
34.0625
33.8125
33.5625
33.375
33.25
33.5625
34.625
37.0
40.3125
43.1875
44.8125
45.6875
46.625
48.375
50.3125
51.6875
52.0625
51.375
49.9375
48.0625
46.25
44.125
42.0
40.625
40.0625
39.3125
38.375
37.625
36.8125
36.1875
35.75
35.5
35.25
35.0625
34.8125
34.5
34.125
33.75
33.4375
33.1875
32.9375
32.8125
32.6875
32.5625
32.5625
32.5625
32.5625
32.8125
33.3125
34.875
37.5
40.4375
42.6875
44.375
45.875
47.8125
50.3125
52.6875
54.4375
55.125
55.0625
54.3125
53.125
51.625
49.6875
47.9375
46.8125
46.3125
45.3125
44.25
43.1875
42.125
41.375
40.9375
40.6875
40.3125
39.875
39.3125
38.75
38.25
37.75
37.3125
37.0
36.6875
36.375
36.0
35.5625
35.125
34.6875
34.3125
34.0
33.75
33.5625
33.5
33.9375
35.3125
37.9375
41.3125
44.375
46.125
47.0
48.0
49.5625
51.5
53.0
53.4375
53.0625
52.0
50.625
49.125
47.375
45.3125
43.75
43.125
42.8125
42.1875
41.4375
40.5625
39.8125
39.3125
38.9375
38.5625
38.25
37.9375
37.625
37.25
36.8125
36.3125
35.875
35.4375
35.0625
34.75
34.4375
34.1875
34.0
34.0
34.25
35.3125
37.75
40.9375
43.5625
45.0
45.8125
46.8125
48.5
50.3125
51.5625
51.8125
51.125
49.8125
48.4375
46.875
45.0625
43.5
42.625
42.25
41.6875
40.9375
40.125
39.3125
38.75
38.375
38.0625
37.8125
37.5
37.125
36.75
36.375
36.0
35.625
35.3125
34.875
34.375
34.0625
33.75
33.5
33.3125
33.1875
33.1875
33.625
34.9375
37.6875
41.0625
43.625
45.0
45.8125
46.9375
48.6875
50.75
52.125
52.375
51.8125
50.5
49.0625
47.5625
45.6875
43.9375
43.0
42.625
42.125
41.3125
40.5
39.6875
39.125
38.6875
38.4375
38.125
37.8125
37.5
37.125
36.6875
36.25
35.875
35.4375
35.0625
34.75
34.375
34.0625
33.8125
33.625
33.5625
33.75
34.625
36.875
40.125
43.0
44.6875
45.625
46.5625
48.1875
50.25
51.75
52.3125
51.9375
50.8125
49.4375
48.0
46.25
44.4375
43.0625
42.625
42.1875
41.5
40.75
39.875
39.1875
38.75
38.5
38.1875
37.875
37.625
37.25
36.8125
36.375
36.0
35.5625
35.125
34.75
34.4375
34.1875
33.9375
33.6875
33.625
33.75
34.4375
36.3125
39.375
42.4375
44.4375
45.5
46.375
47.8125
49.875
51.6875
52.5625
52.375
51.4375
50.0
48.5625
46.8125
44.9375
43.5
42.9375
42.5625
41.875
41.0625
40.25
39.5
38.9375
38.625
38.375
38.0625
37.75
37.3125
36.875
36.3125
35.6875
35.0625
34.375
33.625
32.875
32.1875
31.5
31.0
30.625
30.375
30.25
30.5625
31.875
34.5625
37.625
39.8125
41.125
42.0625
43.375
45.25
47.0625
48.125
48.25
47.5625
46.5
45.4375
44.0625
42.4375
41.125
40.75
40.8125
40.4375
40.0
39.5625
39.0
38.8125
38.875
38.875
38.9375
39.0
39.0625
39.0625
39.125
39.125
39.1875
39.3125
39.25
39.0625
38.6875
38.0625
37.375
36.75
36.1875
35.75
35.4375
35.25
35.1875
35.5625
36.9375
39.625
43.0
45.875
47.4375
48.3125
49.3125
51.0625
53.0625
54.5625
54.9375
54.5625
53.5625
52.125
50.625
48.875
46.8125
45.25
44.5
44.1875
43.4375
42.5625
41.6875
40.8125
40.25
39.8125
39.5
39.1875
38.875
38.5
38.0625
37.625
37.1875
36.75
36.25
35.8125
35.4375
35.1875
34.9375
34.75
34.6875
34.9375
36.125
38.6875
41.875
44.3125
45.625
46.4375
47.5
49.25
51.0
52.0625
52.125
51.4375
50.125
48.6875
47.125
45.3125
43.75
42.875
42.5
41.875
41.1875
40.375
39.5625
39.0
38.5625
38.25
38.0
37.6875
37.3125
36.9375
36.5625
36.1875
35.75
35.375
34.9375
34.5625
34.25
33.875
33.625
33.4375
33.375
33.4375
34.0625
35.875
38.9375
42.125
44.25
45.375
46.25
47.6875
49.625
51.4375
52.4375
52.375
51.5625
50.1875
48.75
47.125
45.25
43.6875
43.0
42.6875
41.9375
41.125
40.3125
39.5625
39.0
38.5625
38.25
38.0625
37.6875
37.3125
36.9375
36.5625
36.125
35.75
35.3125
34.875
34.5
34.25
33.9375
33.6875
33.5
33.4375
33.6875
34.625
37.0
40.3125
43.125
44.75
45.625
46.625
48.3125
50.3125
51.8125
52.3125
51.9375
50.8125
49.375
47.9375
46.1875
44.3125
42.9375
42.5
42.125
41.375
40.5625
39.75
39.0
38.5625
38.25
37.9375
37.625
37.375
37.0
36.625
36.1875
35.8125
35.375
35.0
34.5625
34.25
33.875
33.625
33.4375
33.1875
33.25
33.8125
35.375
38.3125
41.625
43.875
45.0625
46.0
47.3125
49.25
51.25
52.4375
52.375
51.5
50.25
48.75
47.0
45.1875
43.6875
42.875
42.4375
41.8125
41.0625
40.1875
39.4375
38.875
38.5
38.125
37.8125
37.5
37.125
36.5625
35.9375
35.3125
34.6875
34.0
33.25
32.4375
31.6875
31.125
30.5625
30.0625
29.8125
29.625
29.75
30.375
32.1875
35.125
38.0625
40.0
41.125
42.25
43.8125
45.8125
47.5625
48.3125
48.1875
47.375
46.375
45.1875
43.6875
42.0625
41.0
40.75
40.6875
40.1875
39.6875
39.125
38.6875
38.5625
38.5
38.625
38.75
38.8125
38.875
38.875
38.9375
38.9375
39.0
39.0
38.8125
38.5625
38.0625
37.4375
36.75
36.1875
35.6875
35.375
35.1875
35.25
35.9375
37.8125
40.875
44.1875
46.4375
47.5625
48.3125
49.5625
51.4375
53.3125
54.4375
54.4375
53.6875
52.4375
50.875
49.3125
47.5
45.625
44.4375
44.0
43.4375
42.625
41.75
40.8125
40.0625
39.5625
39.1875
38.8125
38.5
38.125
37.75
37.3125
36.875
36.4375
36.0
35.5
35.125
34.8125
34.5625
34.3125
34.1875
34.1875
34.8125
36.625
39.625
42.6875
44.625
45.5625
46.3125
47.625
49.375
51.0
51.625
51.375
50.3125
48.9375
47.5625
45.875
44.0625
42.6875
42.1875
41.75
41.0625
40.3125
39.5
38.8125
38.3125
37.875
37.5625
37.25
37.0
36.625
36.25
35.875
35.5
35.0625
34.6875
34.3125
33.9375
33.625
33.3125
33.125
33.0
32.9375
33.0625
34.0
36.125
39.4375
42.5
44.25
45.1875
46.0625
47.5625
49.625
51.3125
52.0625
51.75
50.6875
49.3125
47.875
46.125
44.25
42.8125
42.3125
42.0
41.3125
40.5
39.625
38.9375
38.4375
38.0625
37.75
37.5
37.1875
36.875
36.5
36.0625
35.625
35.1875
34.6875
34.3125
34.0
33.6875
33.4375
33.25
33.1875
33.3125
33.9375
35.75
38.8125
41.9375
43.9375
45.0
45.8125
47.1875
49.125
50.875
51.6875
51.5625
50.625
49.25
47.875
46.1875
44.375
42.875
42.1875
41.875
41.25
40.5
39.625
38.875
38.375
38.0
37.625
37.375
37.125
36.75
36.4375
36.0625
35.625
35.125
34.6875
34.3125
34.0
33.75
33.5
33.3125
33.1875
33.1875
33.625
35.1875
38.0
41.3125
43.6875
44.875
45.6875
46.875
48.8125
50.625
51.6875
51.8125
51.125
49.875
48.5
46.9375
45.0625
43.3125
42.4375
42.125
41.5625
40.75
39.875
39.125
38.5
38.125
37.8125
37.5
37.25
36.875
36.5
36.125
35.75
35.3125
34.9375
34.5625
34.125
33.8125
33.5
33.1875
32.875
32.625
32.375
32.375
33.125
35.25
38.125
40.4375
41.6875
42.3125
43.25
44.8125
46.5625
47.6875
47.875
47.3125
46.0625
44.75
43.375
41.6875
40.0625
39.25
39.1875
38.9375
38.4375
37.8125
37.1875
36.75
36.5625
36.5
36.375
36.1875
36.0
35.6875
35.375
35.125
34.9375
34.8125
34.6875
34.5625
34.375
34.375
34.4375
34.6875
34.9375
35.1875
35.625
36.1875
37.3125
39.625
42.9375
46.0625
47.9375
48.875
49.6875
51.25
53.3125
55.1875
56.125
56.0625
55.25
53.8125
52.0
50.1875
48.125
46.375
45.5625
45.0625
44.1875
43.1875
42.1875
41.375
40.8125
40.375
40.0625
39.75
39.3125
38.8125
38.375
37.875
37.4375
36.9375
36.4375
35.9375
35.4375
34.9375
34.5
34.25
34.0
33.875
33.9375
34.75
36.6875
39.875
42.9375
44.9375
45.9375
46.6875
48.0
49.8125
51.375
52.0625
51.8125
50.8125
49.4375
48.0625
46.375
44.5
42.9375
42.125
41.875
41.375
40.625
39.8125
39.0
38.5
38.0625
37.75
37.4375
37.125
36.8125
36.4375
36.0625
35.625
35.1875
34.75
34.3125
34.0
33.6875
33.4375
33.125
32.9375
32.875
33.125
34.0
36.125
39.375
42.375
44.25
45.125
45.9375
47.375
49.3125
50.875
51.5
51.25
50.25
48.875
47.5
45.75
43.9375
42.5625
42.0
41.6875
41.0
40.25
39.375
38.625
38.125
37.8125
37.5625
37.25
36.9375
36.5625
36.1875
35.8125
35.375
34.9375
34.5
34.125
33.8125
33.5
33.25
33.0625
32.9375
33.0
33.4375
35.0
37.9375
41.125
43.4375
44.5625
45.3125
46.5625
48.4375
50.1875
51.1875
51.25
50.5625
49.25
47.8125
46.3125
44.5
42.875
42.0
41.6875
41.1875
40.4375
39.5625
38.8125
38.3125
37.9375
37.5625
37.25
37.0
36.75
36.3125
35.875
35.4375
35.0625
34.6875
34.25
33.875
33.5625
33.3125
33.125
32.9375
32.875
33.125
34.0625
36.4375
39.6875
42.5
44.125
45.0
46.0
47.5625
49.5
51.0
51.5
51.0625
49.9375
48.625
47.1875
45.5
43.6875
42.4375
41.875
41.375
40.5
39.5625
38.4375
37.5
36.75
36.0
35.375
34.8125
34.1875
33.625
33.125
32.625
32.1875
31.6875
31.3125
30.9375
30.6875
30.5625
30.375
30.25
30.25
30.4375
30.8125
32.0
34.375
37.1875
39.5625
41.1875
42.375
43.875
45.75
47.8125
49.0625
49.375
48.8125
47.625
46.375
44.8125
42.9375
41.3125
40.5625
40.4375
40.0
39.5
39.0625
38.6875
38.5625
38.6875
39.0
39.3125
39.5
39.625
39.6875
39.75
39.8125
40.0
39.9375
39.625
39.125
38.375
37.625
36.875
36.3125
35.75
35.3125
35.0625
34.8125
34.75
35.0
36.1875
38.625
42.0
45.0625
46.875
47.75
48.5625
50.0625
51.9375
53.4375
54.0
53.625
52.6875
51.3125
49.8125
48.1875
46.25
44.4375
43.5
43.125
42.5625
41.75
40.875
40.0625
39.375
38.9375
38.625
38.3125
38.0625
37.6875
37.3125
36.875
36.4375
36.0
35.5
35.125
34.75
34.375
34.125
33.9375
33.8125
34.0625
34.9375
37.125
40.25
43.0625
44.625
45.375
46.1875
47.625
49.375
50.625
51.0
50.5
49.3125
47.9375
46.5
44.8125
43.0625
41.9375
41.5625
41.125
40.4375
39.6875
38.9375
38.3125
37.8125
37.5
37.1875
36.9375
36.625
36.25
35.875
35.5
35.125
34.8125
34.375
34.0
33.6875
33.375
33.0625
32.8125
32.625
32.5
32.625
33.3125
35.1875
38.1875
41.375
43.5625
44.625
45.375
46.6875
48.625
50.375
51.3125
51.3125
50.5
49.125
47.75
46.125
44.3125
42.75
42.125
41.875
41.25
40.5
39.625
38.875
38.3125
37.9375
37.625
37.375
37.125
36.8125
36.4375
36.0
35.5625
35.1875
34.75
34.375
34.0625
33.6875
33.3125
33.125
33.0
32.9375
33.125
33.9375
36.0625
39.1875
42.125
43.9375
44.8125
45.625
47.125
49.0625
50.625
51.1875
50.9375
49.9375
48.5625
47.125
45.4375
43.625
42.4375
42.0
41.5625
40.875
40.0625
39.25
38.5625
38.125
37.8125
37.5
37.25
37.0
36.625
36.25
35.875
35.4375
35.0
34.625
34.25
33.9375
33.625
33.375
33.1875
33.0
33.0625
33.5625
35.125
38.0
41.1875
43.375
44.5625
45.3125
46.5625
48.4375
50.25
51.3125
51.3125
50.5625
49.3125
47.9375
46.375
44.5625
43.0
42.1875
41.875
41.3125
40.5
39.75
38.9375
38.375
38.0625
37.75
37.4375
37.1875
36.875
36.4375
36.0
35.625
35.1875
34.5625
33.9375
33.1875
32.625
31.9375
31.3125
30.75
30.375
30.125
30.3125
31.5
34.0
37.0
39.25
40.5
41.375
42.625
44.375
46.25
47.3125
47.5
46.875
45.875
44.875
43.625
42.125
40.8125
40.375
40.3125
39.875
39.375
38.875
38.3125
38.0
37.8125
37.6875
37.5625
37.5
37.4375
37.375
37.375
37.4375
37.5
37.625
37.75
37.8125
37.75
37.4375
37.125
36.75
36.3125
35.8125
35.3125
34.9375
34.8125
35.0625
36.3125
38.9375
42.25
45.125
46.75
47.5
48.375
49.9375
52.0
53.6875
54.3125
54.0
53.0625
51.625
50.125
48.5
46.5625
44.8125
43.9375
43.5625
42.9375
42.125
41.25
40.375
39.75
39.3125
38.9375
38.625
38.25
37.875
37.5
37.0625
36.5625
36.125
35.6875
35.25
34.9375
34.625
34.4375
34.25
34.1875
34.4375
35.5625
38.0
41.125
43.5625
44.9375
45.6875
46.625
48.125
49.875
51.0625
51.25
50.5625
49.3125
47.9375
46.5
44.8125
43.125
42.0625
41.8125
41.3125
40.625
39.875
39.0625
38.4375
38.0
37.6875
37.4375
37.1875
36.875
36.5
36.0625
35.6875
35.3125
34.9375
34.5
34.125
33.8125
33.4375
33.1875
33.0
32.875
32.9375
33.4375
34.875
37.6875
40.9375
43.375
44.625
45.375
46.5625
48.375
50.3125
51.5625
51.625
51.0
49.75
48.4375
46.9375
45.1875
43.5625
42.6875
42.25
41.6875
40.9375
40.1875
39.375
38.875
38.375
38.0625
37.8125
37.5
37.1875
36.8125
36.375
36.0
35.625
35.1875
34.75
34.4375
34.0625
33.75
33.5
33.3125
33.25
33.5
34.375
36.5
39.6875
42.5
44.125
45.0625
45.9375
47.5
49.4375
51.0
51.5625
51.1875
50.25
48.875
47.5625
45.8125
44.0
42.6875
42.25
41.875
41.1875
40.4375
39.5625
38.9375
38.4375
38.0625
37.8125
37.5625
37.25
36.9375
36.5625
36.125
35.75
35.3125
34.875
34.5
34.1875
33.875
33.625
33.4375
33.25
33.375
33.9375
35.5625
38.4375
41.5625
43.6875
44.8125
45.625
46.9375
48.8125
50.6875
51.75
51.75
51.0
49.75
48.375
46.875
45.0625
43.4375
42.625
42.3125
41.6875
40.9375
40.125
39.375
38.8125
38.4375
38.125
37.8125
37.4375
37.0
36.375
35.75
35.0
34.375
33.5625
32.75
32.0625
31.4375
30.875
30.5
30.25
30.0
30.0
30.25
31.5
33.9375
36.9375
39.25
40.625
41.6875
43.0625
45.0
47.0
48.25
48.5625
48.1875
47.25
46.3125
45.0625
43.4375
42.0625
41.4375
41.4375
41.0625
40.5625
40.0625
39.5
39.1875
39.1875
39.3125
39.4375
39.5
39.5
39.4375
39.4375
39.4375
39.375
39.1875
38.9375
38.4375
37.8125
37.125
36.5
35.9375
35.5
35.3125
35.0625
34.875
35.25
36.5625
39.0625
42.25
45.0625
46.75
47.625
48.5625
50.125
52.0625
53.4375
53.875
53.5
52.5
51.125
49.75
48.1875
46.25
44.4375
43.5
43.25
42.6875
41.875
41.0
40.25
39.625
39.125
38.8125
38.5625
38.25
37.9375
37.5625
37.125
36.6875
36.1875
35.75
35.375
35.0
34.6875
34.4375
34.25
34.1875
34.3125
35.1875
37.375
40.4375
43.1875
44.75
45.625
46.4375
47.9375
49.75
51.1875
51.8125
51.3125
50.1875
48.8125
47.4375
45.8125
44.0
42.6875
42.25
41.8125
41.125
40.375
39.5
38.875
38.4375
38.0625
37.8125
37.5
37.25
36.875
36.5
36.0625
35.6875
35.25
34.8125
34.4375
34.0625
33.8125
33.5
33.3125
33.125
33.0625
33.5
34.75
37.3125
40.5
43.125
44.5625
45.375
46.4375
48.1875
50.1875
51.5625
51.875
51.375
50.3125
48.9375
47.5
45.6875
43.9375
42.75
42.375
41.875
41.125
40.375
39.625
38.9375
38.5
38.125
37.875
37.5
37.1875
36.8125
36.4375
36.0625
35.625
35.1875
34.75
34.375
34.125
33.8125
33.5625
33.3125
33.25
33.4375
34.25
36.3125
39.4375
42.3125
44.0625
45.0
45.875
47.375
49.3125
51.0
51.625
51.375
50.4375
49.125
47.75
46.125
44.3125
42.8125
42.1875
41.875
41.1875
40.4375
39.625
38.8125
38.3125
38.0
37.75
37.4375
37.1875
36.8125
36.4375
36.0625
35.625
35.1875
34.75
34.3125
34.0
33.75
33.5
33.3125
33.125
33.125
33.6875
35.3125
38.1875
41.3125
43.5625
44.6875
45.5
46.75
48.5625
50.4375
51.5625
51.625
51.0
49.6875
48.3125
46.8125
45.0
43.3125
42.4375
42.125
41.5625
40.8125
40.0
39.1875
38.5625
38.0625
37.8125
37.5
37.1875
36.875
36.5625
36.1875
35.75
35.375
34.875
34.4375
34.125
33.8125
33.5625
33.3125
33.0625
32.875
33.0625
33.8125
35.6875
38.75
41.75
43.6875
44.6875
45.5625
46.9375
48.9375
50.625
51.5
51.3125
50.375
48.8125
47.0625
45.0625
42.9375
41.125
40.1875
39.5625
38.625
37.625
36.75
35.9375
35.375
35.0625
34.75
34.5625
34.3125
34.0
33.6875
33.375
33.0625
32.75
32.5625
32.4375
32.25
32.0625
31.8125
31.6875
31.625
31.625
31.6875
31.8125
32.1875
33.375
35.625
38.5625
41.1875
43.0625
44.4375
46.125
48.4375
50.875
52.9375
54.1875
54.5625
54.1875
53.25
52.0625
50.5
48.625
47.125
46.375
45.6875
44.6875
43.625
42.5625
41.625
41.0
40.5625
40.1875
39.8125
39.3125
38.8125
38.25
37.75
37.25
36.875
36.5
36.125
35.6875
35.25
34.875
34.5625
34.25
34.0
33.8125
33.875
34.5
36.25
39.1875
42.375
44.6875
45.875
46.5625
47.625
49.25
51.0
52.0
52.0
51.375
50.125
48.875
47.4375
45.625
43.9375
42.75
42.3125
41.8125
41.125
40.375
39.5625
38.875
38.4375
38.0625
37.6875
37.375
37.0625
36.75
36.375
35.9375
35.4375
35.0
34.5625
34.25
33.9375
33.6875
33.5
33.3125
33.375
33.8125
35.25
38.0
41.0625
43.3125
44.5
45.25
46.375
48.0625
49.8125
50.8125
50.8125
50.0625
48.8125
47.5
46.0625
44.25
42.6875
41.8125
41.4375
40.875
40.1875
39.5
38.6875
38.0625
37.625
37.3125
37.0
36.75
36.4375
36.125
35.6875
35.3125
34.9375
34.5625
34.125
33.75
33.4375
33.125
32.875
32.6875
32.5625
32.6875
33.3125
35.0
37.9375
41.125
43.25
44.375
45.1875
46.4375
48.3125
50.1875
51.125
51.125
50.375
49.125
47.8125
46.3125
44.5
42.875
42.0
41.6875
41.125
40.3125
39.5625
38.8125
38.25
37.8125
37.5
37.25
36.9375
36.625
36.1875
35.8125
35.375
35.0
34.5625
34.1875
33.875
33.5
33.25
33.0625
32.9375
32.875
33.1875
34.4375
36.9375
40.1875
42.6875
44.0625
44.9375
45.9375
47.5625
49.5
50.8125
51.125
50.5625
49.4375
48.125
46.75
45.0
43.1875
42.0
41.6875
41.25
40.5625
39.75
38.9375
38.25
37.8125
37.5
37.25
37.0
36.6875
36.3125
35.9375
35.5
35.0625
34.5625
34.0625
33.5
32.9375
32.3125
31.8125
31.375
30.875
30.625
30.9375
32.5
35.25
38.0
39.8125
40.75
41.5
42.75
44.5625
46.125
46.875
46.75
45.875
44.8125
43.6875
42.3125
40.8125
39.6875
39.375
39.375
38.9375
38.5
38.0
37.4375
37.1875
37.0
36.875
36.8125
36.6875
36.4375
36.1875
36.125
36.125
36.1875
36.1875
36.3125
36.3125
36.3125
36.375
36.4375
36.5
36.5
36.4375
36.5625
37.375
39.3125
42.25
45.0625
46.875
47.8125
48.75
50.1875
52.0625
53.6875
54.375
54.1875
53.4375
52.125
50.5
48.875
47.0
45.1875
44.1875
43.8125
43.1875
42.3125
41.5
40.625
39.9375
39.5
39.125
38.75
38.375
37.875
37.375
36.9375
36.5625
36.0625
35.5625
35.1875
34.8125
34.5
34.125
33.875
33.6875
33.625
33.75
34.5625
36.625
39.75
42.625
44.4375
45.3125
46.125
47.4375
49.1875
50.6875
51.1875
50.875
49.9375
48.625
47.3125
45.6875
43.9375
42.4375
41.8125
41.5
40.875
40.1875
39.375
38.5625
38.0625
37.6875
37.3125
37.0
36.75
36.4375
36.0
35.625
35.25
34.875
34.5
34.125
33.6875
33.375
33.0625
32.8125
32.5625
32.375
32.375
32.8125
34.0625
36.625
39.9375
42.5625
44.0
44.8125
45.75
47.375
49.25
50.6875
51.0625
50.625
49.5
48.25
46.875
45.1875
43.375
42.125
41.625
41.1875
40.5625
39.8125
39.0
38.25
37.8125
37.4375
37.125
36.875
36.5625
36.1875
35.875
35.4375
35.0625
34.6875
34.25
33.875
33.5
33.1875
32.9375
32.75
32.5625
32.5
32.9375
34.125
36.75
39.9375
42.4375
43.875
44.6875
45.625
47.375
49.25
50.5
50.75
50.25
49.1875
47.875
46.4375
44.6875
43.0
41.875
41.4375
41.0
40.3125
39.5
38.75
38.0625
37.625
37.3125
37.0
36.75
36.4375
36.125
35.75
35.375
34.9375
34.5
34.0625
33.75
33.4375
33.0625
32.875
32.75
32.5625
32.6875
33.3125
35.125
38.125
41.1875
43.1875
44.25
45.0625
46.375
48.1875
49.875
50.8125
50.8125
50.0
48.6875
47.3125
45.8125
44.0625
42.5
41.6875
41.3125
40.75
40.0
39.25
38.4375
37.875
37.4375
37.125
36.875
36.625
36.3125
35.9375
35.5625
35.125
34.6875
34.3125
33.9375
33.625
33.25
33.0
32.75
32.5625
32.5625
32.875
34.0625
36.5
39.6875
42.3125
43.75
44.5625
45.5
47.1875
49.125
50.4375
50.75
50.3125
49.1875
47.8125
46.375
44.625
42.625
41.25
40.5
39.6875
38.625
37.5625
36.5
35.5625
34.875
34.3125
33.875
33.5625
33.25
32.875
32.5
32.1875
31.8125
31.5
31.25
31.0
30.75
30.5
30.375
30.3125
30.25
30.1875
30.1875
30.4375
31.25
33.0625
35.75
38.3125
40.1875
41.375
42.5625
44.3125
46.3125
48.0
48.75
48.75
48.0625
46.9375
45.625
44.0625
42.3125
41.1875
41.0
41.0
40.5625
40.25
39.875
39.6875
39.9375
40.1875
40.5
40.625
40.75
40.8125
40.875
40.75
40.5625
40.0625
39.4375
38.6875
37.9375
37.1875
36.5
35.9375
35.5625
35.1875
34.9375
34.75
34.625
35.125
36.5625
39.25
42.5
45.125
46.75
47.4375
48.375
49.875
51.5625
52.8125
53.0
52.4375
51.4375
50.0625
48.6875
47.0
45.125
43.4375
42.625
42.3125
41.75
41.0
40.25
39.5
38.8125
38.375
38.0625
37.8125
37.5625
37.25
36.8125
36.375
35.875
35.375
34.9375
34.5625
34.25
34.0
33.75
33.5625
33.625
34.0625
35.625
38.4375
41.4375
43.5625
44.625
45.3125
46.3125
48.0
49.5625
50.3125
50.125
49.25
47.9375
46.625
45.125
43.4375
41.875
41.0625
40.75
40.25
39.5625
38.8125
38.0625
37.5625
37.25
36.9375
36.625
36.4375
36.125
35.75
35.375
34.9375
34.5625
34.125
33.6875
33.375
33.0625
32.75
32.5625
32.4375
32.375
32.5
33.25
35.1875
38.25
41.25
43.25
44.25
45.0
46.25
48.0625
49.8125
50.6875
50.5
49.625
48.3125
46.9375
45.4375
43.6875
42.25
41.625
41.3125
40.625
39.9375
39.125
38.375
37.875
37.5625
37.1875
36.875
36.625
36.3125
35.9375
35.5625
35.125
34.6875
34.3125
33.875
33.625
33.3125
33.0625
32.875
32.6875
32.6875
33.0
34.125
36.5625
39.75
42.25
43.625
44.4375
45.375
46.9375
48.75
50.0625
50.4375
50.0
48.9375
47.6875
46.25
44.5625
42.75
41.5625
41.125
40.8125
40.1875
39.4375
38.6875
38.0
37.5
37.1875
36.9375
36.6875
36.375
36.0
35.625
35.25
34.875
34.5
34.0625
33.75
33.4375
33.125
32.875
32.625
32.5
32.5625
33.125
34.625
37.375
40.5
42.8125
44.0
44.75
45.875
47.625
49.375
50.5
50.6875
50.0
48.75
47.5
46.0625
44.25
42.625
41.75
41.375
40.875
40.125
39.3125
38.5625
37.9375
37.4375
37.1875
36.9375
36.625
36.3125
35.9375
35.5625
35.1875
34.875
34.5
34.1875
33.75
33.375
33.0625
32.75
32.5
32.25
32.0625
32.0
32.3125
33.3125
35.625
38.8125
41.625
43.375
44.25
45.1875
46.6875
48.625
50.25
50.9375
50.6875
49.6875
48.375
47.0625
45.4375
43.625
42.1875
41.5625
41.3125
40.625
39.875
39.0625
38.3125
37.75
37.4375
37.0625
36.6875
36.1875
35.5625
34.9375
34.25
33.5625
32.8125
32.125
31.4375
30.75
30.1875
29.6875
29.375
29.125
28.9375
28.9375
29.0625
29.6875
31.4375
34.25
37.0625
39.0625
40.25
41.3125
42.875
44.9375
46.625
47.5625
47.625
47.0
46.0625
45.125
43.8125
42.25
41.0625
40.75
40.75
40.3125
39.875
39.5
39.1875
39.125
39.1875
39.25
39.4375
39.5
39.4375
39.3125
39.0
38.6875
38.3125
37.75
37.125
36.5
35.9375
35.4375
34.9375
34.625
34.375
34.1875
34.25
34.9375
36.8125
39.8125
42.9375
45.125
46.1875
46.9375
48.0625
49.6875
51.1875
52.0
51.875
51.0625
49.8125
48.4375
46.9375
45.25
43.5625
42.375
42.0625
41.5625
40.875
40.125
39.25
38.5625
38.0625
37.75
37.5
37.25
36.9375
36.5625
36.1875
35.75
35.25
34.8125
34.375
34.0625
33.75
33.4375
33.25
33.1875
33.3125
33.9375
35.75
38.6875
41.5625
43.4375
44.3125
45.0625
46.25
48.0
49.4375
50.0625
49.8125
48.875
47.5625
46.25
44.75
43.0625
41.625
41.0
40.6875
40.125
39.5
38.625
37.9375
37.4375
37.0625
36.75
36.5
36.25
35.875
35.5625
35.25
34.875
34.5625
34.125
33.6875
33.375
33.0625
32.75
32.5625
32.375
32.1875
32.25
32.75
34.3125
37.125
40.375
42.625
43.8125
44.5625
45.75
47.5
49.3125
50.5
50.625
50.0
48.8125
47.5
46.0625
44.25
42.625
41.625
41.3125
40.875
40.1875
39.4375
38.625
38.0
37.625
37.3125
37.0625
36.8125
36.5
36.125
35.75
35.375
35.0
34.5625
34.1875
33.8125
33.5
33.1875
32.875
32.6875
32.4375
32.4375
32.5625
33.4375
35.5
38.5625
41.5
43.3125
44.1875
45.0
46.5
48.375
50.0625
50.8125
50.5625
49.625
48.375
47.0625
45.5
43.75
42.3125
41.8125
41.5
40.8125
40.0625
39.1875
38.4375
37.9375
37.625
37.3125
37.0625
36.75
36.4375
36.0625
35.75
35.375
35.0
34.5625
34.25
33.875
33.5625
33.1875
32.9375
32.6875
32.5
32.5
32.8125
33.875
36.25
39.375
42.0625
43.6875
44.5
45.5625
47.1875
49.125
50.625
51.0
50.625
49.4375
47.9375
46.25
44.25
42.1875
40.75
40.0625
39.3125
38.3125
37.375
36.4375
35.625
35.0625
34.75
34.5
34.3125
34.0
33.75
33.375
32.9375
32.6875
32.4375
32.25
32.125
32.0
31.8125
31.75
31.6875
31.625
31.6875
31.9375
32.5625
34.0625
36.6875
39.375
41.5
43.0
44.375
46.1875
48.375
50.5625
52.0
52.625
52.6875
52.125
51.25
50.125
48.5625
47.0
46.125
45.8125
45.0625
43.9375
42.8125
41.8125
41.0
40.5625
40.1875
39.8125
39.4375
39.0
38.5
37.9375
37.4375
37.0
36.5625
36.125
35.6875
35.25
34.875
34.5
34.25
34.0625
33.8125
33.8125
34.25
35.625
38.25
41.5625
44.1875
45.5625
46.3125
47.25
48.6875
50.4375
51.5
51.6875
51.0625
50.0625
48.75
47.4375
45.8125
44.0
42.625
42.125
41.8125
41.1875
40.4375
39.5625
38.8125
38.375
37.9375
37.625
37.3125
36.9375
36.625
36.25
35.8125
35.4375
35.0
34.5625
34.1875
33.875
33.5625
33.375
33.1875
33.1875
33.5625
34.6875
37.125
40.25
42.6875
44.0625
44.8125
45.6875
47.25
49.0
50.1875
50.4375
49.875
48.6875
47.375
46.0
44.3125
42.625
41.625
41.25
40.75
40.0625
39.3125
38.5625
37.875
37.4375
37.125
36.8125
36.5625
36.3125
36.0
35.625
35.25
34.9375
34.5625
34.125
33.6875
33.3125
33.0625
32.8125
32.625
32.375
32.3125
32.625
33.75
36.125
39.3125
42.0
43.5625
44.4375
45.375
46.875
48.8125
50.3125
50.8125
50.5
49.5
48.1875
46.8125
45.125
43.375
42.0
41.4375
41.125
40.4375
39.75
38.9375
38.1875
37.6875
37.3125
37.0
36.75
36.5
36.125
35.6875
35.375
35.0
34.625
34.25
33.8125
33.4375
33.1875
32.875
32.625
32.4375
32.375
32.4375
33.125
34.9375
38.0
41.0625
43.125
44.1875
45.0
46.3125
48.125
49.8125
50.6875
50.625
49.8125
48.5
47.1875
45.75
43.9375
42.375
41.625
41.3125
40.75
40.0
39.125
38.3125
37.75
37.4375
37.1875
36.875
36.5625
36.25
35.875
35.4375
35.0625
34.75
34.375
34.0
33.625
33.3125
32.9375
32.625
32.375
32.25
32.1875
32.25
33.0
34.8125
37.625
40.3125
41.875
42.625
43.0625
44.1875
45.875
47.25
47.75
47.3125
46.3125
44.875
43.4375
41.875
40.125
38.9375
38.625
38.375
37.75
37.25
36.625
36.125
35.875
35.8125
35.75
35.6875
35.5625
35.1875
34.875
34.625
34.4375
34.25
34.0625
33.875
33.625
33.4375
33.3125
33.3125
33.375
33.625
34.125
34.875
36.375
39.1875
42.5625
45.3125
47.0
48.25
49.6875
51.625
53.5625
54.6875
54.8125
54.1875
53.0
51.4375
49.875
48.0
46.0625
44.9375
44.5625
43.75
42.75
41.6875
40.75
40.0625
39.5625
39.25
39.0
38.625
38.1875
37.75
37.3125
36.9375
36.5
36.0625
35.625
35.1875
34.6875
34.3125
33.9375
33.625
33.375
33.3125
33.4375
34.1875
36.3125
39.375
42.375
44.25
45.125
45.9375
47.125
48.8125
50.3125
50.9375
50.6875
49.8125
48.5
47.25
45.75
43.9375
42.3125
41.4375
41.125
40.625
39.9375
39.1875
38.4375
37.8125
37.375
37.0625
36.8125
36.5625
36.25
35.875
35.5
35.0625
34.625
34.1875
33.75
33.5
33.125
32.875
32.625
32.4375
32.5
32.9375
34.1875
36.8125
40.0
42.4375
43.8125
44.5625
45.5
47.0625
48.875
50.125
50.3125
49.6875
48.5
47.1875
45.75
44.0625
42.375
41.4375
41.125
40.625
39.875
39.125
38.3125
37.75
37.3125
37.0
36.6875
36.4375
36.125
35.75
35.375
35.0
34.625
34.1875
33.75
33.4375
33.125
32.8125
32.5
32.3125
32.25
32.375
33.0
34.75
37.6875
40.75
42.8125
43.875
44.625
45.875
47.625
49.375
50.25
50.25
49.4375
48.1875
46.875
45.4375
43.75
42.1875
41.375
41.125
40.5
39.75
39.0
38.25
37.6875
37.25
36.9375
36.6875
36.4375
36.125
35.75
35.375
35.0
34.625
34.1875
33.8125
33.4375
33.125
32.8125
32.5625
32.375
32.1875
32.25
32.8125
34.4375
37.25
40.375
42.5625
43.75
44.625
45.8125
47.5625
49.3125
50.3125
50.4375
49.8125
48.5625
47.25
45.8125
44.125
42.4375
41.5625
41.25
40.6875
39.9375
39.125
38.3125
37.6875
37.3125
37.0
36.6875
36.375
36.0
35.5625
35.0
34.4375
33.875
33.25
32.5625
31.875
31.1875
30.4375
29.8125
29.25
28.875
28.6875
28.5625
28.5625
28.6875
29.5625
31.625
34.5625
37.3125
39.25
40.375
41.5
43.0625
45.125
46.8125
47.5
47.375
46.75
45.8125
44.8125
43.5
41.875
40.6875
40.4375
40.375
39.875
39.4375
39.0
38.625
38.625
38.75
38.8125
38.875
38.9375
38.9375
38.8125
38.625
38.375
38.125
37.75
37.3125
36.75
36.1875
35.75
35.375
35.0625
34.6875
34.3125
33.75
33.1875
32.6875
32.3125
32.0625
31.9375
31.8125
31.875
32.75
34.5625
37.5
40.9375
43.6875
45.25
46.125
47.125
48.75
50.625
51.875
52.125
51.625
50.5625
49.125
47.75
46.0625
44.1875
42.8125
42.3125
42.0625
41.4375
40.6875
39.8125
39.0625
38.5
38.0625
37.75
37.5
37.1875
36.75
36.1875
35.625
35.125
34.6875
34.375
34.1875
34.0
33.875
34.0
34.8125
36.8125
39.5625
41.75
43.0
43.75
44.5625
45.875
47.4375
48.375
48.4375
47.75
46.5
45.25
43.8125
42.25
40.8125
40.0625
39.8125
39.3125
38.625
38.0
37.1875
36.6875
36.3125
36.0
35.75
35.4375
35.1875
34.75
34.5
34.1875
33.875
33.5
33.125
32.75
32.375
32.0625
31.8125
31.625
31.4375
31.3125
31.375
32.0
33.6875
36.4375
39.6875
42.0625
43.3125
44.0625
45.3125
47.0625
48.9375
50.125
50.3125
49.6875
48.5
47.125
45.75
44.0
42.3125
41.4375
41.1875
40.6875
39.9375
39.0625
38.3125
37.6875
37.3125
37.0
36.75
36.5
36.125
35.75
35.375
35.0
34.625
34.25
33.875
33.4375
33.125
32.8125
32.5625
32.375
32.3125
32.375
32.9375
34.625
37.5625
40.5
42.5625
43.625
44.4375
45.625
47.375
49.0625
49.9375
49.9375
49.125
47.8125
46.5
45.0
43.3125
41.875
41.25
40.875
40.1875
39.5
38.6875
37.9375
37.375
37.0
36.75
36.5
36.25
35.875
35.5
35.125
34.75
34.4375
34.125
33.75
33.375
33.0
32.6875
32.375
32.125
31.875
31.75
31.8125
32.4375
34.0
36.8125
40.0625
42.3125
43.5
44.375
45.5625
47.3125
49.1875
50.375
50.5625
49.9375
48.75
47.4375
46.0625
44.3125
42.625
41.6875
41.4375
40.8125
40.0625
39.3125
38.5
37.875
37.4375
37.125
36.8125
36.5625
36.25
35.875
35.5
35.125
34.75
34.375
34.0
33.5
32.8125
32.1875
31.5625
31.0
30.4375
29.875
29.5
29.4375
29.9375
31.625
34.4375
37.1875
39.0
39.9375
40.75
42.125
43.9375
45.5
46.1875
45.9375
45.125
44.125
43.0625
41.6875
40.1875
39.125
38.9375
38.875
38.4375
38.0
37.5
37.0625
36.8125
36.75
36.6875
36.6875
36.625
36.5625
36.5
36.4375
36.5
36.5625
36.6875
36.6875
36.6875
36.6875
36.625
36.4375
36.1875
35.875
35.625
35.75
36.8125
39.125
42.125
44.6875
46.3125
47.125
48.0
49.4375
51.25
52.6875
53.25
52.875
51.875
50.5
49.0
47.375
45.5625
44.0625
43.4375
43.0625
42.3125
41.4375
40.5
39.75
39.1875
38.6875
38.375
38.0
37.625
37.1875
36.75
36.3125
35.875
35.4375
35.0625
34.625
34.25
34.0
33.75
33.5
33.4375
33.5
34.125
35.9375
38.875
41.8125
43.75
44.6875
45.375
46.5625
48.1875
49.625
50.25
50.0
49.0625
47.8125
46.5625
45.0625
43.375
41.875
41.1875
40.875
40.25
39.5625
38.875
38.125
37.5625
37.1875
36.8125
36.5625
36.25
35.875
35.5625
35.25
34.875
34.5
34.125
33.6875
33.3125
33.0625
32.75
32.5625
32.375
32.25
32.5
33.3125
35.375
38.5
41.4375
43.25
44.1875
45.0
46.3125
48.125
49.6875
50.3125
50.0625
49.125
47.8125
46.5
45.0
43.3125
41.875
41.3125
41.0
40.3125
39.625
38.8125
38.0625
37.5625
37.1875
36.875
36.6875
36.375
36.0
35.6875
35.3125
34.9375
34.5
34.1875
33.75
33.375
33.0625
32.8125
32.5625
32.375
32.3125
32.4375
33.1875
35.0
38.0625
41.0
42.9375
43.9375
44.75
46.0625
47.875
49.5
50.3125
50.1875
49.375
48.125
46.8125
45.3125
43.4375
41.9375
41.25
41.0
40.375
39.625
38.875
38.125
37.5625
37.125
36.875
36.625
36.4375
36.0625
35.6875
35.3125
34.9375
34.625
34.3125
34.0625
33.6875
33.25
32.875
32.5625
32.3125
32.0625
31.875
31.75
31.875
32.4375
34.0
36.875
40.0625
42.4375
43.75
44.625
45.8125
47.625
49.5
50.75
50.9375
50.375
49.1875
47.875
46.5
44.6875
42.9375
41.8125
41.5
41.0625
40.3125
39.4375
38.5
37.5625
36.8125
36.1875
35.625
35.0
34.375
33.6875
33.0625
32.4375
31.875
31.4375
30.9375
30.5625
30.3125
30.0625
29.8125
29.625
29.5625
29.5625
29.8125
30.75
32.75
35.5625
38.0
39.75
40.9375
42.1875
44.0625
46.1875
47.75
48.375
48.25
47.5
46.5625
45.625
44.3125
42.9375
42.25
42.4375
42.375
42.0
41.625
41.125
40.875
40.875
41.0
40.9375
40.75
40.3125
39.6875
38.9375
38.3125
37.75
37.25
36.875
36.4375
35.9375
35.5
34.9375
34.5
34.1875
33.875
33.75
34.0
35.125
37.4375
40.6875
43.625
45.375
46.25
47.125
48.375
50.0625
51.375
51.8125
51.4375
50.4375
49.0625
47.75
46.25
44.375
42.75
41.9375
41.625
41.125
40.4375
39.6875
38.9375
38.375
38.0
37.6875
37.3125
37.0625
36.75
36.375
35.9375
35.5
35.0
34.5625
34.1875
33.8125
33.5625
33.3125
33.1875
33.125
33.4375
34.3125
36.5
39.5
42.1875
43.75
44.5
45.375
46.75
48.4375
49.75
50.125
49.625
48.5
47.125
45.8125
44.1875
42.5625
41.375
41.0625
40.625
39.9375
39.25
38.5
37.875
37.4375
37.125
36.8125
36.5625
36.25
35.875
35.5
35.1875
34.8125
34.375
34.0
33.625
33.25
33.0
32.6875
32.4375
32.3125
32.3125
32.6875
33.75
36.1875
39.3125
41.9375
43.5
44.3125
45.25
46.8125
48.6875
50.0625
50.5625
50.1875
49.125
47.8125
46.4375
44.875
43.1875
41.9375
41.5
41.125
40.4375
39.6875
38.875
38.1875
37.6875
37.3125
37.0625
36.8125
36.5625
36.1875
35.75
35.375
35.0625
34.75
34.375
34.0
33.625
33.3125
33.0
32.625
32.375
32.1875
32.0625
32.0625
32.5625
34.0
36.6875
39.875
42.3125
43.6875
44.5
45.625
47.4375
49.375
50.6875
51.0
50.5
49.4375
48.0625
46.6875
45.0
43.25
42.0
41.5625
41.25
40.5625
39.8125
38.9375
38.3125
37.875
37.5
37.25
37.0
36.75
36.375
36.0
35.625
35.1875
34.8125
34.5
34.0625
33.75
33.4375
33.125
32.9375
32.8125
32.8125
33.125
34.375
36.8125
40.0
42.4375
43.8125
44.625
45.75
47.375
49.25
50.5
50.875
50.375
49.25
47.9375
46.625
45.0
43.3125
42.25
41.875
41.375
40.5625
39.8125
39.0625
38.375
37.875
37.625
37.375
37.125
36.8125
36.4375
36.0625
35.6875
35.3125
34.9375
34.5625
34.125
33.75
33.375
33.125
32.8125
32.4375
32.125
32.0
32.4375
34.0
36.5625
39.0625
40.625
41.375
42.125
43.3125
45.0
46.4375
46.9375
46.625
45.75
44.5625
43.3125
41.8125
40.125
38.875
38.5625
38.5
38.0625
37.625
37.0625
36.5625
36.25
36.0
35.8125
35.6875
35.3125
34.9375
34.5625
34.1875
33.875
33.5625
33.3125
33.0625
32.875
32.6875
32.6875
32.875
33.125
33.5625
34.25
35.5625
37.9375
41.0
44.0625
46.375
48.0625
49.6875
51.5625
53.625
55.125
55.75
55.5
54.5
53.0
51.25
49.5
47.5625
46.125
45.6875
45.125
44.0625
43.0625
42.0
41.125
40.5625
40.1875
39.875
39.5625
39.1875
38.75
38.25
37.8125
37.4375
37.0625
36.5625
36.125
35.6875
35.25
34.8125
34.5625
34.25
34.0625
34.125
34.9375
36.8125
39.8125
42.6875
44.5625
45.625
46.375
47.625
49.375
50.875
51.5
51.25
50.375
49.125
47.875
46.375
44.625
43.0
42.125
41.6875
41.125
40.4375
39.75
38.9375
38.375
37.9375
37.625
37.3125
37.0625
36.6875
36.3125
35.9375
35.5
35.125
34.6875
34.25
33.9375
33.625
33.375
33.125
32.9375
33.0
33.5625
35.0625
37.875
41.0
43.125
44.1875
44.9375
46.125
47.8125
49.5625
50.5625
50.5625
49.875
48.6875
47.4375
46.0
44.375
42.75
41.75
41.3125
40.8125
40.125
39.375
38.625
38.0
37.5625
37.1875
36.9375
36.6875
36.375
36.0
35.625
35.25
34.875
34.5625
34.125
33.75
33.375
33.0625
32.75
32.5
32.3125
32.25
32.375
33.125
35.0
38.0
40.9375
43.0
44.0625
44.875
46.125
48.0
49.75
50.8125
50.875
50.1875
49.0
47.75
46.3125
44.5
42.8125
41.75
41.375
40.875
40.1875
39.375
38.625
37.9375
37.5
37.1875
36.9375
36.6875
36.375
36.0
35.625
35.25
34.875
34.5625
34.25
33.875
33.4375
33.125
32.8125
32.5
32.25
32.0625
32.0
32.125
32.875
34.8125
37.8125
40.875
42.875
43.9375
44.8125
46.1875
48.0625
49.875
50.875
50.9375
50.3125
49.125
47.8125
46.4375
44.6875
42.9375
41.875
41.5
41.0
40.3125
39.5
38.75
38.125
37.625
37.3125
37.0625
36.8125
36.5
36.125
35.75
35.3125
34.875
34.4375
34.0625
33.75
33.4375
33.125
32.875
32.625
32.5
32.625
33.3125
35.1875
38.125
41.125
43.0
44.0
44.8125
46.0625
47.8125
49.375
50.0
49.5625
48.4375
46.8125
45.125
43.3125
41.3125
39.5625
38.625
38.125
37.4375
36.6875
36.0
35.375
34.875
34.5
34.25
34.0625
33.9375
33.75
33.5
33.1875
32.875
32.625
32.375
32.1875
32.0625
31.875
31.75
31.6875
31.75
31.75
32.0
32.6875
34.375
37.0
39.6875
41.75
43.1875
44.5625
46.4375
48.75
50.9375
52.4375
53.125
53.125
52.4375
51.4375
50.25
48.5625
46.8125
45.625
45.0
44.1875
43.1875
42.1875
41.1875
40.4375
39.9375
39.5625
39.1875
38.75
38.3125
37.8125
37.3125
36.8125
36.375
35.9375
35.5625
35.125
34.6875
34.375
34.0625
33.75
33.5
33.375
33.5
34.5
36.625
39.6875
42.5625
44.4375
45.25
45.9375
47.1875
48.8125
50.1875
50.9375
50.6875
49.875
48.75
47.5
46.0625
44.3125
42.6875
41.6875
41.3125
40.8125
40.1875
39.5
38.6875
38.0625
37.5625
37.125
36.8125
36.5625
36.25
35.875
35.5
35.125
34.625
34.1875
33.8125
33.5
33.1875
32.9375
32.75
32.6875
32.8125
33.5
35.3125
38.25
41.1875
43.0625
44.0
44.6875
45.9375
47.6875
49.1875
49.875
49.75
48.9375
47.6875
46.3125
44.875
43.1875
41.8125
41.125
40.8125
40.1875
39.4375
38.6875
37.875
37.375
37.0
36.625
36.375
36.125
35.8125
35.4375
35.0625
34.6875
34.3125
33.9375
33.5
33.125
32.8125
32.5625
32.3125
32.125
32.0625
32.1875
33.0
34.9375
38.0
40.9375
42.75
43.75
44.5625
45.875
47.6875
49.375
50.125
50.0625
49.25
48.0625
46.75
45.3125
43.5625
42.0625
41.3125
41.0
40.375
39.625
38.875
38.0625
37.5
37.0625
36.6875
36.375
36.125
35.8125
35.5
35.0625
34.625
34.375
34.125
33.9375
33.6875
33.3125
32.875
32.5
32.125
31.75
31.5
31.25
31.125
31.0625
31.125
31.75
33.4375
36.3125
39.625
42.0625
43.375
44.1875
45.4375
47.25
49.25
50.5625
50.9375
50.5625
49.5
48.1875
46.875
45.125
43.25
42.0
41.5625
41.1875
40.5
39.75
38.875
38.125
37.6875
37.25
36.875
36.4375
35.9375
35.3125
34.5625
33.875
33.1875
32.4375
31.6875
31.0
30.4375
30.0
29.6875
29.4375
29.25
29.25
29.5
30.4375
32.5625
35.375
37.6875
39.125
40.1875
41.375
43.125
45.0
46.3125
46.75
46.4375
45.625
44.75
43.625
42.25
40.875
40.125
40.0625
39.875
39.4375
39.0625
38.625
38.4375
38.4375
38.4375
38.5625
38.75
38.75
38.6875
38.5625
38.3125
38.0
37.625
37.125
36.5625
35.9375
35.3125
34.8125
34.4375
34.0
33.6875
33.4375
33.3125
33.5625
34.75
37.0625
40.1875
43.0625
44.9375
45.875
46.6875
48.0625
49.75
51.1875
51.6875
51.4375
50.5625
49.3125
48.0
46.5
44.6875
43.0625
42.125
41.75
41.1875
40.4375
39.625
38.875
38.25
37.75
37.375
37.0625
36.8125
36.5
36.1875
35.75
35.375
34.875
34.375
33.875
33.5
33.1875
33.0
32.875
32.8125
32.9375
33.75
35.75
38.6875
41.375
43.0
43.8125
44.5625
45.875
47.5
48.875
49.375
49.0625
48.0625
46.8125
45.5
44.0
42.3125
41.0
40.4375
40.0625
39.375
38.75
38.0
37.3125
36.8125
36.4375
36.1875
35.9375
35.625
35.25
34.875
34.5625
34.1875
33.8125
33.4375
33.0
32.75
32.4375
32.125
31.875
31.75
31.6875
32.0
32.875
35.0625
38.1875
41.0
42.625
43.5
44.375
45.75
47.5625
49.1875
49.8125
49.5
48.625
47.375
46.125
44.5625
42.75
41.25
40.5625
40.25
39.75
39.0625
38.3125
37.5
36.875
36.5
36.25
36.0
35.75
35.4375
35.0625
34.75
34.375
34.0
33.625
33.25
32.875
32.5625
32.25
32.0
31.75
31.5
31.5
31.8125
32.8125
35.0625
38.1875
41.0
42.625
43.5625
44.375
45.875
47.75
49.3125
49.9375
49.6875
48.8125
47.5
46.25
44.75
42.9375
41.5625
40.9375
40.625
40.0
39.25
38.5
37.75
37.1875
36.75
36.4375
36.1875
35.875
35.5625
35.25
34.875
34.5
34.125
33.75
33.375
33.0625
32.75
32.375
32.0625
31.875
31.8125
31.8125
32.1875
33.4375
36.0
39.125
41.5625
42.9375
43.75
44.75
46.375
48.25
49.5
49.875
49.4375
48.375
47.125
45.8125
44.25
42.5625
41.3125
40.875
40.4375
39.75
39.0
38.125
37.375
36.6875
36.125
35.5625
35.0
34.4375
33.8125
33.0625
32.375
31.75
31.125
30.4375
29.9375
29.5625
29.3125
29.0625
28.9375
28.75
28.75
28.875
29.5
31.25
34.0
36.75
38.625
39.875
40.9375
42.5625
44.625
46.25
47.125
47.25
46.75
45.875
45.0
43.8125
42.375
41.1875
40.875
41.0625
40.75
40.4375
40.0625
39.75
39.625
39.625
39.75
39.875
39.75
39.375
38.875
38.25
37.6875
37.0625
36.5625
36.0625
35.5625
35.125
34.625
34.1875
33.8125
33.5
33.25
33.3125
34.125
36.0
39.0
42.0625
44.25
45.4375
46.125
47.1875
48.75
50.25
51.0
50.8125
50.0625
48.875
47.625
46.1875
44.5
42.75
41.5
41.0
40.6875
40.0625
39.3125
38.5625
37.9375
37.5
37.125
36.75
36.5
36.25
35.9375
35.5
35.0625
34.5625
34.125
33.625
33.3125
33.0625
32.8125
32.5625
32.5
32.5625
33.125
34.6875
37.4375
40.375
42.4375
43.5
44.25
45.3125
46.875
48.375
49.125
49.0625
48.25
47.0
45.6875
44.25
42.5625
41.0625
40.375
40.125
39.5625
38.875
38.1875
37.4375
36.875
36.4375
36.1875
35.9375
35.625
35.3125
34.9375
34.625
34.25
33.9375
33.5625
33.1875
32.8125
32.5
32.1875
31.9375
31.75
31.625
31.6875
32.125
33.5
36.1875
39.3125
41.6875
42.875
43.625
44.6875
46.3125
48.125
49.25
49.5
49.0625
48.0
46.75
45.4375
43.8125
42.0625
40.875
40.5625
40.25
39.5625
38.8125
38.0
37.3125
36.8125
36.5
36.25
36.0
35.6875
35.3125
34.9375
34.5625
34.25
33.9375
33.5625
33.125
32.8125
32.5625
32.25
31.9375
31.75
31.625
31.625
32.125
33.5625
36.25
39.4375
41.75
43.0
43.8125
44.875
46.5
48.3125
49.5
49.6875
49.125
48.0
46.75
45.375
43.6875
42.0625
41.0
40.625
40.1875
39.5
38.8125
38.0
37.3125
36.875
36.625
36.375
36.0625
35.75
35.375
35.0
34.6875
34.375
34.0
33.625
33.25
32.875
32.5625
32.25
32.0
31.8125
31.625
31.75
32.25
33.75
36.5625
39.625
41.875
43.0625
43.875
45.0
46.6875
48.5
49.625
49.8125
49.1875
48.0625
46.8125
45.5
43.8125
42.125
41.0
40.625
40.25
39.5625
38.8125
38.0625
37.375
36.8125
36.375
35.9375
35.4375
34.875
34.25
33.5
32.8125
32.0625
31.375
30.6875
30.125
29.6875
29.375
29.125
28.875
28.75
28.6875
28.875
29.6875
31.5625
34.3125
36.875
38.5
39.625
40.75
42.375
44.375
45.875
46.5
46.375
45.625
44.625
43.5625
42.0625
40.4375
39.1875
38.75
38.5
37.8125
37.25
36.5625
35.8125
35.375
35.125
34.9375
34.75
34.5625
34.3125
34.0
33.6875
33.5
33.375
33.1875
32.9375
32.6875
32.5
32.3125
32.1875
32.125
32.1875
32.375
32.8125
33.875
36.0625
39.0625
42.0
44.1875
45.8125
47.5625
49.75
52.125
54.125
55.1875
55.375
54.875
53.6875
52.0
50.25
48.1875
46.3125
45.4375
45.125
44.3125
43.3125
42.375
41.4375
40.6875
40.1875
39.75
39.375
38.875
38.4375
38.0
37.5
37.0
36.5625
36.1875
35.75
35.375
35.0625
34.75
34.4375
34.1875
34.0
34.0
34.5
36.0625
38.75
41.6875
43.8125
44.75
45.375
46.375
47.8125
49.3125
50.0625
50.0
49.25
48.0625
46.9375
45.5625
43.9375
42.25
41.125
40.625
40.3125
39.8125
39.1875
38.375
37.6875
37.1875
36.8125
36.5
36.25
36.0
35.6875
35.3125
34.875
34.5
34.125
33.75
33.375
33.0625
32.8125
32.625
32.5
32.5
32.9375
34.25
36.8125
39.8125
42.0625
43.3125
43.9375
44.8125
46.3125
48.0
49.125
49.3125
48.75
47.6875
46.4375
45.1875
43.5625
41.9375
40.8125
40.375
40.0625
39.4375
38.75
38.0625
37.375
36.875
36.5625
36.3125
36.0625
35.75
35.4375
35.125
34.75
34.375
34.0625
33.6875
33.3125
33.0
32.6875
32.375
32.125
31.9375
31.875
32.0625
32.75
34.5
37.4375
40.375
42.375
43.375
44.125
45.375
47.125
48.8125
49.75
49.8125
49.1875
48.0
46.75
45.4375
43.75
42.125
41.25
41.0
40.4375
39.75
39.0625
38.25
37.625
37.1875
36.875
36.625
36.375
36.0625
35.6875
35.25
35.0
34.6875
34.4375
34.0625
33.75
33.3125
33.0
32.6875
32.375
32.125
31.9375
31.75
31.6875
32.0625
33.25
35.625
38.75
41.375
43.0
43.875
44.875
46.4375
48.3125
49.8125
50.375
50.125
49.25
48.125
46.8125
45.3125
43.5625
42.3125
41.8125
41.375
40.6875
39.9375
39.125
38.375
37.875
37.5
37.1875
36.9375
36.6875
36.375
36.0
35.5625
35.25
34.875
34.5625
34.1875
33.75
33.4375
33.125
32.8125
32.5625
32.375
32.375
32.5625
33.375
35.375
38.375
41.1875
42.8125
43.75
44.625
46.0625
47.875
49.5
50.1875
50.0625
49.25
48.0625
46.875
45.4375
43.6875
42.1875
41.5
41.1875
40.5625
39.875
39.0625
38.3125
37.8125
37.4375
37.125
36.875
36.625
36.25
35.875
35.5
35.1875
34.8125
34.5
34.0625
33.625
33.3125
33.0625
32.8125
32.5625
32.375
32.375
32.75
33.9375
36.4375
39.5625
41.9375
43.25
44.0
44.8125
46.25
47.8125
48.8125
48.8125
48.0625
46.75
45.1875
43.625
41.75
39.8125
38.4375
38.0625
37.75
37.0625
36.4375
35.8125
35.25
34.875
34.625
34.5625
34.5
34.375
34.0625
33.75
33.5
33.25
33.0625
32.9375
32.8125
32.6875
32.5625
32.5625
32.625
32.75
33.0
33.625
34.875
37.1875
40.125
42.8125
44.75
46.3125
48.0
50.125
52.3125
53.875
54.5
54.25
53.3125
51.75
50.125
48.375
46.5
45.125
44.625
44.0625
43.1875
42.1875
41.1875
40.3125
39.75
39.3125
38.9375
38.5625
38.1875
37.8125
37.3125
36.875
36.5
36.125
35.75
35.3125
34.875
34.4375
34.0625
33.8125
33.5
33.25
33.3125
33.875
35.5
38.3125
41.375
43.5625
44.6875
45.5
46.5625
48.1875
49.75
50.6875
50.6875
50.0625
48.9375
47.625
46.25
44.5625
42.875
41.6875
41.25
40.875
40.25
39.5625
38.6875
38.0
37.5
37.0625
36.8125
36.5625
36.3125
36.0
35.625
35.1875
34.75
34.375
33.9375
33.5625
33.25
33.0
32.75
32.5
32.4375
32.6875
33.5
35.625
38.625
41.4375
43.125
43.9375
44.75
46.0625
47.8125
49.3125
49.875
49.625
48.75
47.5625
46.3125
44.8125
43.0625
41.5625
40.9375
40.625
40.0
39.3125
38.5625
37.75
37.1875
36.8125
36.5
36.25
36.0
35.625
35.25
34.875
34.5625
34.25
34.0
33.6875
33.3125
32.9375
32.5625
32.25
31.9375
31.625
31.4375
31.375
31.375
31.8125
33.25
35.875
39.0625
41.6875
43.125
44.0
45.0625
46.75
48.625
50.0625
50.5625
50.1875
49.25
48.0625
46.75
45.0625
43.1875
41.75
41.1875
40.875
40.25
39.5625
38.6875
37.9375
37.3125
37.0
36.6875
36.4375
36.1875
35.875
35.5
35.0625
34.75
34.4375
34.0625
33.625
33.1875
32.875
32.5625
32.25
32.0
31.8125
31.8125
32.125
33.125
35.25
38.3125
41.0
42.625
43.5625
44.5
46.0
47.875
49.4375
50.125
49.9375
49.0625
47.75
46.5
44.9375
43.25
41.75
41.125
40.75
40.1875
39.5
38.6875
37.875
37.25
36.875
36.4375
36.0
35.4375
34.8125
34.125
33.5
32.8125
32.0625
31.375
30.6875
30.125
29.6875
29.375
29.0625
28.9375
28.875
28.875
29.1875
30.3125
32.6875
35.5625
38.0
39.5
40.5
41.75
43.5625
45.5625
46.875
47.3125
47.0625
46.3125
45.5
44.4375
43.0625
41.6875
40.8125
40.875
40.8125
40.5
40.125
39.75
39.5
39.5
39.6875
39.75
39.75
39.625
39.1875
38.6875
38.125
37.5
37.0
36.5
36.0
35.5
35.0
34.5
34.0625
33.75
33.5
33.375
33.8125
35.1875
37.75
40.8125
43.4375
44.9375
45.75
46.625
48.0625
49.6875
50.75
51.0
50.5
49.5
48.1875
46.9375
45.375
43.6875
42.125
41.375
41.0625
40.5
39.8125
39.125
38.3125
37.75
37.3125
36.9375
36.6875
36.375
36.0
35.625
35.125
34.75
34.3125
33.8125
33.5625
33.25
32.875
32.625
32.5625
32.4375
32.625
33.4375
35.5
38.5
41.125
42.75
43.625
44.4375
45.75
47.375
48.75
49.25
49.0
48.0625
46.8125
45.5
44.0
42.375
41.0
40.3125
40.0625
39.4375
38.8125
38.125
37.375
36.8125
36.4375
36.1875
35.875
35.5625
35.25
34.9375
34.5625
34.1875
33.75
33.375
33.0
32.6875
32.3125
32.0625
31.8125
31.625
31.5625
31.6875
32.1875
33.8125
36.625
39.6875
41.8125
43.0
43.8125
44.875
46.625
48.3125
49.375
49.5
48.875
47.6875
46.4375
45.125
43.4375
41.75
40.75
40.4375
39.9375
39.25
38.5
37.6875
37.0625
36.625
36.375
36.125
35.8125
35.5
35.125
34.75
34.4375
34.1875
33.875
33.5
33.0625
32.625
32.3125
32.0
31.6875
31.4375
31.25
31.25
31.4375
32.25
34.25
37.3125
40.3125
42.1875
43.25
44.0625
45.375
47.1875
48.8125
49.625
49.5625
48.8125
47.625
46.375
44.9375
43.1875
41.6875
40.875
40.5625
40.0
39.3125
38.5
37.75
37.125
36.6875
36.4375
36.1875
35.875
35.5625
35.25
34.875
34.5
34.0625
33.6875
33.3125
32.9375
32.625
32.3125
32.0
31.75
31.5625
31.5
31.75
32.5625
34.5
37.5
40.4375
42.1875
43.125
44.0
45.375
47.1875
48.8125
49.5625
49.375
48.5625
47.4375
46.1875
44.6875
42.9375
41.25
40.3125
39.75
38.875
37.8125
36.75
35.6875
34.8125
34.1875
33.625
33.25
32.8125
32.4375
32.125
31.75
31.4375
31.0625
30.75
30.4375
30.25
30.0625
29.875
29.75
29.6875
29.6875
29.75
30.0
30.6875
32.25
34.8125
37.5
39.625
41.0625
42.3125
44.0
46.0625
48.125
49.375
49.9375
49.875
49.25
48.5
47.5
46.25
44.9375
44.0625
44.0625
43.75
43.0625
42.25
41.25
40.3125
39.625
39.125
38.75
38.375
38.0
37.5
37.0625
36.5625
36.0625
35.625
35.25
34.8125
34.3125
33.875
33.5
33.0625
32.8125
32.625
32.5625
32.75
33.75
35.8125
38.875
41.8125
43.8125
44.8125
45.5
46.5625
48.125
49.5625
50.125
49.9375
49.125
47.9375
46.8125
45.4375
43.75
42.0625
41.0
40.6875
40.25
39.625
38.9375
38.125
37.4375
37.0
36.5625
36.3125
36.0625
35.6875
35.375
35.0
34.5625
34.125
33.625
33.3125
33.0
32.6875
32.4375
32.25
32.1875
32.25
32.75
34.25
37.0
39.9375
42.0
43.0
43.6875
44.75
46.375
47.9375
48.75
48.75
47.9375
46.75
45.5
44.1875
42.5
41.0
40.25
40.0
39.4375
38.75
38.0
37.25
36.6875
36.25
35.9375
35.6875
35.375
35.0625
34.75
34.375
34.0625
33.6875
33.3125
32.9375
32.5625
32.25
31.9375
31.75
31.5625
31.375
31.5
31.9375
33.375
36.0625
39.125
41.375
42.5625
43.3125
44.3125
46.0
47.75
48.9375
49.1875
48.6875
47.625
46.375
45.0625
43.5
41.8125
40.625
40.1875
39.8125
39.1875
38.4375
37.6875
37.0
36.5
36.1875
35.875
35.625
35.375
35.0
34.625
34.25
34.0
33.6875
33.375
33.0
32.5625
32.25
31.9375
31.625
31.375
31.1875
31.125
31.3125
32.0625
33.875
36.8125
39.8125
41.75
42.875
43.75
45.0
46.8125
48.4375
49.375
49.4375
48.75
47.5625
46.3125
44.9375
43.1875
41.5625
40.625
40.3125
39.875
39.1875
38.375
37.625
37.0
36.5625
36.3125
36.0625
35.75
35.4375
35.0625
34.6875
34.375
34.0
33.6875
33.3125
32.875
32.5625
32.3125
32.0
31.75
31.5625
31.5
31.75
32.5625
34.5625
37.5625
40.3125
42.0
42.9375
43.75
45.125
46.9375
48.5625
49.3125
49.125
48.3125
47.125
45.9375
44.5
42.8125
41.25
40.4375
40.1875
39.625
38.875
38.0
37.0625
36.3125
35.625
35.0625
34.4375
33.8125
33.1875
32.5
31.9375
31.375
30.75
30.25
29.8125
29.5625
29.3125
29.125
28.9375
28.8125
28.8125
28.9375
29.5
30.9375
33.4375
36.25
38.3125
39.625
40.75
42.25
44.125
45.8125
46.875
47.1875
46.875
46.125
45.4375
44.375
42.9375
41.625
41.125
41.375
41.25
40.8125
40.5
40.125
39.8125
39.8125
39.8125
39.6875
39.3125
38.9375
38.3125
37.625
37.0
36.5
36.0625
35.6875
35.3125
34.8125
34.3125
33.8125
33.375
33.0
32.75
32.6875
32.875
33.875
36.0625
39.125
42.125
44.0625
45.0
45.75
46.9375
48.5
49.9375
50.5
50.1875
49.4375
48.1875
46.875
45.4375
43.75
42.0625
41.0
40.6875
40.375
39.6875
39.0
38.3125
37.6875
37.25
36.8125
36.5
36.125
35.8125
35.5
35.125
34.6875
34.25
33.75
33.375
33.0
32.6875
32.4375
32.25
32.125
32.1875
32.6875
34.25
36.9375
39.875
41.9375
43.0625
43.75
44.75
46.3125
47.875
48.625
48.625
47.8125
46.625
45.375
44.0
42.3125
40.875
40.0625
39.8125
39.3125
38.625
37.9375
37.1875
36.625
36.25
35.9375
35.6875
35.375
35.125
34.75
34.375
34.0625
33.6875
33.3125
32.9375
32.5625
32.25
32.0
31.75
31.5625
31.5
31.5625
32.0
33.4375
36.125
39.1875
41.4375
42.625
43.375
44.4375
46.0625
47.8125
48.875
49.0
48.4375
47.375
46.125
44.875
43.25
41.5625
40.4375
40.125
39.8125
39.125
38.4375
37.6875
37.0
36.5
36.125
35.875
35.625
35.375
35.0625
34.6875
34.375
34.0
33.625
33.3125
32.9375
32.5625
32.25
32.0
31.6875
31.5
31.3125
31.25
31.625
32.6875
34.9375
38.0
40.6875
42.3125
43.1875
44.0625
45.5625
47.4375
48.875
49.4375
49.25
48.3125
47.125
45.9375
44.4375
42.6875
41.375
40.8125
40.4375
39.75
39.0625
38.3125
37.5625
37.0625
36.6875
36.4375
36.1875
35.875
35.5625
35.1875
34.875
34.5
34.125
33.75
33.375
33.0
32.6875
32.375
32.125
31.9375
31.8125
31.9375
32.4375
33.9375
36.5625
39.25
41.0
41.75
42.1875
42.9375
44.375
45.8125
46.625
46.5
45.625
44.3125
42.9375
41.5625
39.9375
38.5
37.875
37.75
37.25
36.75
36.125
35.5
35.125
34.9375
34.875
34.8125
34.6875
34.5
34.25
33.9375
33.6875
33.5
33.375
33.1875
33.0625
32.8125
32.6875
32.6875
32.75
33.0
33.4375
34.0625
35.375
37.875
41.0625
43.875
45.6875
46.9375
48.25
50.0625
52.0
53.3125
53.8125
53.4375
52.4375
51.0
49.5
47.875
46.0
44.5625
43.875
43.3125
42.4375
41.5625
40.5625
39.75
39.125
38.8125
38.4375
38.125
37.75
37.375
36.9375
36.5
36.125
35.75
35.3125
34.875
34.4375
34.0
33.5625
33.3125
33.0625
32.875
33.0
33.5625
35.3125
38.1875
41.1875
43.25
44.25
44.9375
46.0
47.5625
49.125
49.9375
49.9375
49.25
48.125
46.875
45.5625
44.0
42.3125
41.1875
40.6875
40.3125
39.6875
39.0625
38.3125
37.625
37.125
36.75
36.4375
36.1875
35.875
35.5625
35.1875
34.8125
34.4375
34.0
33.5625
33.1875
32.875
32.625
32.375
32.1875
32.125
32.25
33.0625
35.0
37.9375
40.75
42.4375
43.375
44.125
45.375
47.125
48.6875
49.375
49.25
48.5
47.375
46.125
44.6875
43.0625
41.5625
40.75
40.4375
39.875
39.25
38.5625
37.8125
37.25
36.8125
36.5625
36.3125
36.0
35.6875
35.3125
35.0
34.6875
34.25
33.75
33.375
33.0
32.75
32.4375
32.25
32.0625
32.0
32.1875
33.0
35.125
38.125
40.8125
42.4375
43.3125
44.125
45.5
47.3125
48.875
49.5
49.3125
48.5
47.375
46.25
44.75
43.0
41.5
40.8125
40.5625
40.0
39.3125
38.5625
37.75
37.25
36.875
36.5625
36.25
36.0
35.75
35.375
35.0
34.6875
34.3125
33.9375
33.5625
33.1875
32.875
32.5625
32.3125
32.125
31.9375
32.0
32.5
33.9375
36.5625
39.625
41.8125
43.0
43.8125
44.875
46.625
48.4375
49.625
49.875
49.4375
48.4375
47.25
45.9375
44.3125
42.5625
41.25
40.625
40.0625
39.25
38.25
37.125
36.125
35.3125
34.625
34.125
33.625
33.25
32.8125
32.375
32.0
31.625
31.3125
31.0
30.75
30.5
30.25
30.0
29.8125
29.8125
29.8125
29.8125
30.0625
30.5
31.6875
33.9375
36.6875
39.0625
40.6875
41.875
43.3125
45.25
47.4375
49.1875
50.0
50.125
49.8125
49.125
48.4375
47.3125
45.9375
44.9375
44.625
44.625
44.0625
43.375
42.5
41.5625
40.8125
40.1875
39.6875
39.25
38.9375
38.5
38.0
37.5
37.0
36.5625
36.125
35.75
35.3125
34.875
34.375
34.0
33.5625
33.25
33.0625
32.9375
33.0625
33.75
35.4375
38.125
41.1875
43.625
44.875
45.625
46.5
47.9375
49.625
50.6875
50.875
50.375
49.4375
48.1875
47.0625
45.5625
43.75
42.125
41.3125
41.125
40.6875
40.0625
39.3125
38.5
37.9375
37.4375
37.125
36.875
36.5625
36.25
35.875
35.4375
35.0
34.5625
34.1875
33.75
33.375
33.125
32.9375
32.75
32.75
33.0
34.0
36.25
39.1875
41.5625
43.0
43.8125
44.625
46.0
47.75
49.0
49.5
49.125
48.1875
47.0
45.75
44.25
42.5
41.1875
40.625
40.3125
39.6875
39.0
38.25
37.5625
37.0
36.625
36.3125
36.0625
35.75
35.4375
35.125
34.75
34.375
34.0
33.625
33.1875
32.875
32.625
32.3125
32.125
31.875
31.8125
31.9375
32.6875
34.5625
37.5
40.375
42.25
43.25
44.0625
45.375
47.1875
48.875
49.8125
49.8125
49.1875
48.125
46.9375
45.5625
43.875
42.25
41.1875
40.8125
40.3125
39.625
38.875
38.125
37.4375
37.0
36.6875
36.4375
36.125
35.8125
35.5
35.125
34.75
34.375
33.9375
33.5625
33.1875
32.875
32.5625
32.3125
32.1875
32.0625
32.1875
33.0
34.9375
37.875
40.625
42.375
43.3125
44.125
45.5
47.3125
48.9375
49.6875
49.625
48.9375
47.75
46.5625
45.125
43.5
42.0
41.1875
40.75
40.1875
39.5
38.6875
37.9375
37.375
37.0
36.625
36.375
36.0
35.75
35.375
35.0
34.625
34.25
33.875
33.4375
33.125
32.75
32.5
32.25
32.0625
31.9375
32.0625
32.8125
34.6875
37.5625
40.375
42.25
43.25
44.0625
45.3125
47.1875
48.8125
49.6875
49.75
49.0625
47.875
46.6875
45.25
43.4375
41.6875
40.5625
39.9375
39.1875
38.1875
37.125
36.0625
35.125
34.375
33.875
33.4375
33.0
32.625
32.3125
31.875
31.5
31.125
30.75
30.5
30.25
30.0625
29.9375
29.875
29.875
29.875
30.125
30.875
32.5625
35.125
37.625
39.4375
40.6875
41.875
43.625
45.75
47.625
48.75
49.125
48.875
48.375
47.75
46.75
45.5
44.3125
43.8125
43.875
43.6875
43.0625
42.3125
41.4375
40.6875
40.0625
39.4375
38.9375
38.5
38.0625
37.5625
37.0625
36.5
36.0
35.5
35.0625
34.625
34.1875
33.8125
33.375
33.0625
32.875
32.75
32.875
33.4375
35.125
37.8125
40.9375
43.375
44.75
45.5
46.375
47.8125
49.25
50.3125
50.5
49.9375
49.0
47.8125
46.625
45.125
43.375
41.9375
41.0625
40.6875
40.25
39.5625
38.75
38.0
37.375
36.875
36.5625
36.3125
36.0625
35.75
35.4375
35.0
34.625
34.1875
33.75
33.4375
33.0625
32.8125
32.5625
32.4375
32.375
32.625
33.6875
36.0
38.9375
41.375
42.75
43.5
44.375
45.75
47.4375
48.6875
49.0625
48.6875
47.6875
46.4375
45.25
43.75
42.0625
40.8125
40.3125
39.9375
39.3125
38.6875
37.875
37.125
36.625
36.25
35.9375
35.6875
35.375
35.0625
34.75
34.4375
34.0625
33.6875
33.375
33.0
32.6875
32.3125
31.9375
31.625
31.375
31.1875
31.125
31.125
31.5625
33.0
35.5625
38.75
41.1875
42.5
43.375
44.375
46.0
47.9375
49.25
49.6875
49.375
48.4375
47.25
46.0
44.5
42.75
41.3125
40.625
40.3125
39.75
39.0625
38.25
37.4375
36.9375
36.5
36.25
36.0
35.6875
35.3125
35.0
34.625
34.25
33.9375
33.6875
33.25
32.8125
32.4375
32.1875
31.875
31.625
31.4375
31.3125
31.4375
32.0625
33.6875
36.5
39.5
41.625
42.6875
43.5
44.6875
46.4375
48.1875
49.3125
49.5625
48.9375
47.9375
46.75
45.4375
43.75
42.0625
40.875
40.375
40.0625
39.4375
38.625
37.8125
37.125
36.625
36.3125
36.0625
35.8125
35.5625
35.1875
34.8125
34.4375
34.0625
33.625
33.25
32.875
32.5625
32.25
32.0
31.8125
31.6875
31.6875
32.1875
33.5625
36.1875
39.125
41.3125
42.5
43.3125
44.375
46.0
47.8125
48.9375
49.125
48.5625
47.3125
45.8125
44.25
42.3125
40.3125
38.9375
38.1875
37.5
36.625
35.8125
34.9375
34.25
33.75
33.4375
33.1875
32.9375
32.75
32.5
32.25
32.0625
31.75
31.5
31.1875
30.9375
30.6875
30.5625
30.5
30.375
30.375
30.5625
31.0625
32.3125
34.625
37.25
39.375
40.8125
42.0625
43.6875
45.75
47.9375
49.5625
50.375
50.5
50.1875
49.625
48.8125
47.5625
46.0625
44.8125
44.3125
43.9375
43.0625
42.0
40.875
39.9375
39.3125
38.8125
38.4375
38.125
37.75
37.3125
36.8125
36.3125
35.8125
35.375
34.9375
34.4375
34.0
33.6875
33.3125
33.0
32.75
32.625
32.625
33.125
34.5
37.0625
40.1875
42.75
44.1875
44.875
45.625
46.9375
48.5
49.625
49.8125
49.375
48.5625
47.375
46.25
44.75
43.0625
41.625
40.75
40.4375
39.9375
39.25
38.5
37.6875
37.0625
36.5625
36.125
35.75
35.5
35.25
34.9375
34.5625
34.1875
33.75
33.375
33.125
32.875
32.625
32.4375
32.25
32.125
32.3125
33.1875
35.1875
38.125
40.75
42.3125
43.0625
43.875
45.125
46.8125
48.125
48.6875
48.4375
47.5
46.375
45.1875
43.75
42.0625
40.6875
40.0
39.6875
39.125
38.5
37.8125
37.0625
36.5
36.125
35.75
35.4375
35.1875
34.9375
34.5625
34.1875
33.8125
33.5
33.125
32.6875
32.375
32.0625
31.8125
31.625
31.4375
31.375
31.625
32.5625
34.75
37.8125
40.5
42.0625
42.875
43.75
45.125
46.875
48.3125
48.9375
48.75
47.875
46.75
45.5625
44.125
42.5
41.0
40.25
39.9375
39.375
38.75
38.0
37.25
36.6875
36.25
35.9375
35.75
35.4375
35.125
34.75
34.4375
34.0625
33.6875
33.375
32.9375
32.5
32.1875
32.0
31.6875
31.4375
31.25
31.1875
31.5625
32.625
35.0
38.0625
40.625
42.125
42.9375
43.8125
45.3125
47.125
48.625
49.1875
48.875
48.0625
46.875
45.6875
44.25
42.5
41.125
40.5
40.1875
39.5625
38.875
38.0625
37.3125
36.75
36.25
35.9375
35.6875
35.4375
35.125
34.75
34.375
34.0
33.6875
33.5
33.1875
32.875
32.5625
32.1875
31.8125
31.4375
31.125
30.875
30.625
30.4375
30.375
30.5
31.1875
32.9375
35.8125
39.0
41.25
42.4375
43.25
44.5
46.25
48.1875
49.4375
49.75
49.375
48.4375
47.25
46.0
44.375
42.625
41.375
40.9375
40.5
39.8125
39.0625
38.25
37.5
36.9375
36.5
36.0625
35.625
35.0625
34.4375
33.75
33.0
32.3125
31.5625
30.8125
30.1875
29.6875
29.25
29.0
28.8125
28.75
28.875
29.375
30.9375
33.4375
35.875
37.5625
38.5625
39.5625
40.9375
42.75
44.1875
44.875
44.75
44.125
43.25
42.3125
41.0
39.5625
38.25
37.875
37.8125
37.4375
37.1875
36.75
36.25
36.125
36.125
36.3125
36.5625
36.8125
36.9375
37.0
37.0625
37.1875
37.25
37.375
37.25
37.0625
36.625
36.0
35.375
34.75
34.3125
34.0625
34.125
34.8125
36.5625
39.3125
42.1875
44.3125
45.375
46.0625
47.0625
48.75
50.5
51.625
51.75
51.1875
50.1875
48.875
47.5
46.0
44.25
42.8125
42.0625
41.6875
41.0
40.25
39.375
38.5625
38.0
37.5
37.125
36.8125
36.4375
36.125
35.75
35.375
34.9375
34.5
34.0625
33.6875
33.375
33.125
32.875
32.6875
32.625
32.875
34.125
36.5625
39.5
41.8125
43.0625
43.6875
44.5
45.875
47.4375
48.4375
48.6875
48.25
47.1875
46.0
44.875
43.3125
41.625
40.375
39.875
39.5625
39.0
38.3125
37.5625
36.8125
36.3125
35.875
35.5625
35.375
35.125
34.8125
34.5
34.125
33.8125
33.5
33.0625
32.6875
32.3125
32.0625
31.75
31.5
31.375
31.25
31.375
32.1875
34.125
37.0625
39.9375
41.8125
42.75
43.5
44.75
46.5
48.125
48.9375
48.9375
48.25
47.125
45.9375
44.625
42.9375
41.4375
40.5625
40.125
39.5625
38.875
38.25
37.5
36.875
36.375
36.0625
35.8125
35.5625
35.3125
34.9375
34.5625
34.1875
33.875
33.625
33.3125
33.0625
32.625
32.1875
31.875
31.5625
31.3125
31.0625
30.875
30.875
31.1875
32.25
34.4375
37.5625
40.3125
41.9375
42.8125
43.6875
45.125
46.9375
48.5625
49.3125
49.25
48.5
47.375
46.25
44.8125
43.125
41.5
40.625
40.3125
39.875
39.1875
38.375
37.625
37.0
36.5625
36.25
36.0
35.75
35.4375
35.0625
34.6875
34.3125
33.9375
33.5
33.125
32.75
32.4375
32.1875
32.0
31.8125
31.75
32.0
33.0
35.25
38.25
40.6875
42.125
42.9375
43.8125
45.25
47.0
48.375
48.875
48.5625
47.625
46.5
45.375
43.875
42.1875
40.875
40.1875
39.875
39.25
38.625
37.875
37.125
36.5625
36.1875
35.875
35.625
35.3125
35.0625
34.75
34.375
34.0
33.625
33.25
32.8125
32.375
31.875
31.375
30.8125
30.3125
29.875
29.5625
29.75
30.8125
33.125
35.8125
37.875
39.0
39.6875
40.625
42.1875
43.8125
44.8125
44.9375
44.375
43.4375
42.5625
41.5
40.125
38.75
37.9375
37.875
37.6875
37.3125
36.9375
36.375
36.0
35.75
35.625
35.5
35.4375
35.3125
35.125
34.9375
34.875
34.875
34.9375
35.0
35.0
35.0625
35.0625
35.1875
35.3125
35.375
35.5
35.75
36.625
38.5625
41.3125
43.75
45.3125
46.125
46.9375
48.375
50.125
51.5625
52.25
52.0625
51.375
50.125
48.75
47.25
45.5625
43.875
42.75
42.3125
41.8125
41.125
40.25
39.375
38.6875
38.25
37.8125
37.4375
37.0625
36.6875
36.3125
35.875
35.4375
34.9375
34.4375
34.0625
33.6875
33.375
33.125
32.875
32.75
32.75
33.0625
34.25
36.5625
39.5625
41.9375
43.25
43.9375
44.8125
46.1875
47.8125
48.9375
49.125
48.6875
47.6875
46.5
45.3125
43.875
42.25
40.9375
40.25
39.875
39.375
38.75
38.0
37.25
36.75
36.3125
36.0
35.75
35.4375
35.125
34.75
34.375
34.0
33.625
33.3125
32.875
32.5625
32.25
32.0
31.8125
31.625
31.5
31.625
32.4375
34.25
37.1875
40.0625
41.9375
42.875
43.5625
44.8125
46.5625
48.125
48.9375
49.0
48.375
47.3125
46.125
44.8125
43.1875
41.5625
40.625
40.3125
39.875
39.1875
38.4375
37.625
37.0
36.5
36.1875
35.9375
35.625
35.375
35.0625
34.6875
34.3125
34.0
33.75
33.4375
33.0625
32.6875
32.25
32.0
31.6875
31.4375
31.25
31.0625
31.0625
31.5
32.6875
35.1875
38.3125
40.875
42.3125
43.125
44.0625
45.5625
47.5
48.9375
49.5625
49.3125
48.4375
47.3125
46.1875
44.6875
43.0
41.5
40.75
40.375
39.875
39.1875
38.4375
37.6875
37.125
36.6875
36.4375
36.1875
35.9375
35.625
35.25
34.875
34.5
34.125
33.6875
33.3125
32.9375
32.625
32.375
32.1875
32.0
31.9375
32.1875
33.125
35.25
38.1875
40.75
42.25
43.0625
43.9375
45.375
47.125
48.625
49.125
48.9375
48.0625
46.875
45.75
44.3125
42.5625
41.125
40.5
40.1875
39.6875
39.0
38.25
37.5
36.9375
36.5625
36.3125
36.0
35.6875
35.375
35.0625
34.6875
34.3125
33.9375
33.5625
33.1875
32.8125
32.4375
32.0625
31.625
31.1875
30.8125
30.625
30.9375
32.3125
34.75
37.1875
38.8125
39.6875
40.375
41.4375
43.0
44.4375
45.1875
45.125
44.5
43.4375
42.5
41.25
39.75
38.5625
38.0
37.9375
37.625
37.125
36.625
36.125
35.75
35.625
35.625
35.5625
35.4375
35.1875
34.9375
34.75
34.6875
34.75
34.8125
34.875
34.9375
34.9375
35.0625
35.25
35.4375
35.6875
36.125
37.1875
39.1875
41.9375
44.3125
45.75
46.5
47.375
48.875
50.6875
52.25
53.0
52.875
52.125
50.875
49.4375
47.875
46.125
44.4375
43.25
42.875
42.3125
41.5
40.6875
39.875
39.25
38.75
38.375
38.0
37.625
37.25
36.875
36.4375
36.0
35.5
35.0
34.5
34.125
33.8125
33.5
33.25
33.0625
33.0
33.3125
34.3125
36.625
39.625
42.0625
43.5
44.25
45.0625
46.375
47.9375
49.1875
49.625
49.25
48.375
47.25
46.125
44.625
42.9375
41.5
40.6875
40.3125
39.8125
39.1875
38.5
37.6875
37.125
36.6875
36.4375
36.125
35.75
35.4375
35.125
34.75
34.3125
33.9375
33.5625
33.1875
32.8125
32.5
32.25
32.0
31.875
31.875
32.125
33.1875
35.5625
38.625
41.125
42.5625
43.3125
44.125
45.625
47.375
48.6875
49.1875
48.875
48.0
46.9375
45.8125
44.375
42.6875
41.1875
40.4375
40.125
39.5625
38.9375
38.1875
37.4375
36.8125
36.4375
36.0625
35.8125
35.5625
35.25
34.9375
34.5
34.1875
33.8125
33.4375
33.125
32.75
32.375
32.125
31.875
31.625
31.5
31.625
32.3125
33.9375
36.75
39.6875
41.625
42.6875
43.5
44.5625
46.3125
48.0
49.0
49.125
48.5625
47.5
46.4375
45.1875
43.5625
41.875
40.75
40.25
39.875
39.25
38.5625
37.75
37.0
36.5
36.125
35.875
35.625
35.3125
35.0
34.625
34.25
33.9375
33.625
33.375
33.0
32.625
32.25
31.9375
31.625
31.3125
31.125
30.9375
30.875
31.0625
31.875
33.8125
36.8125
39.75
41.625
42.625
43.5
44.75
46.625
48.375
49.375
49.5625
48.9375
47.875
46.75
45.5
43.8125
42.0625
40.875
40.4375
40.125
39.4375
38.6875
37.9375
37.1875
36.6875
36.3125
36.0625
35.8125
35.5
35.125
34.75
34.3125
33.75
33.125
32.4375
31.75
31.125
30.5
29.875
29.375
28.9375
28.6875
28.875
29.875
32.0625
34.8125
36.9375
38.1875
39.0
40.0
41.625
43.3125
44.5
44.8125
44.4375
43.6875
42.9375
42.0
40.6875
39.3125
38.3125
38.125
38.0625
37.6875
37.375
36.875
36.375
36.1875
36.0625
36.125
36.1875
36.25
36.3125
36.25
36.25
36.25
36.25
36.3125
36.25
36.0625
35.8125
35.375
35.0
34.625
34.375
34.5625
35.625
37.875
40.8125
43.375
44.9375
45.625
46.3125
47.625
49.375
50.75
51.375
51.125
50.375
49.125
47.8125
46.4375
44.8125
43.1875
42.25
41.8125
41.1875
40.375
39.5625
38.8125
38.125
37.6875
37.25
36.8125
36.375
36.0
35.6875
35.3125
34.875
34.4375
34.0625
33.625
33.3125
33.0
32.75
32.5
32.3125
32.4375
33.0
34.625
37.375
40.1875
42.125
43.125
43.75
44.75
46.25
47.75
48.5625
48.5
47.875
46.75
45.6875
44.4375
42.8125
41.1875
40.125
39.6875
39.3125
38.75
38.0625
37.3125
36.5625
36.0625
35.625
35.3125
35.0625
34.75
34.5
34.125
33.6875
33.375
33.1875
32.9375
32.6875
32.4375
32.125
31.8125
31.375
31.0625
30.75
30.4375
30.25
30.0625
29.9375
29.9375
30.4375
31.8125
34.3125
37.5625
40.3125
41.875
42.75
43.75
45.3125
47.1875
48.875
49.625
49.5
48.8125
47.6875
46.5
45.125
43.375
41.8125
40.9375
40.625
40.125
39.375
38.6875
37.875
37.25
36.75
36.4375
36.125
35.875
35.5625
35.1875
34.8125
34.375
34.0
33.5625
33.125
32.75
32.4375
32.1875
32.0
31.875
31.875
32.3125
33.5625
36.0625
38.9375
41.0
42.125
42.8125
43.8125
45.375
47.0625
48.125
48.3125
47.75
46.6875
45.5625
44.3125
42.6875
41.125
40.0625
39.6875
39.25
38.625
38.0
37.1875
36.5
36.0625
35.625
35.375
35.125
34.875
34.625
34.25
33.875
33.5625
33.1875
32.8125
32.4375
32.0625
31.8125
31.5625
31.3125
31.125
31.0625
31.25
32.0625
33.875
36.75
39.625
41.4375
42.375
43.125
44.4375
46.1875
47.8125
48.75
48.75
48.125
47.0625
45.875
44.625
43.0
41.25
40.0
39.5625
39.3125
38.6875
38.0
37.25
36.5625
36.0625
35.625
35.375
35.1875
34.8125
34.4375
33.875
33.3125
32.6875
32.0
31.25
30.5625
29.9375
29.3125
28.8125
28.4375
28.125
28.0
28.3125
29.375
31.625
34.375
36.5625
37.875
38.75
39.8125
41.3125
43.0
44.1875
44.5625
44.3125
43.5
42.6875
41.625
40.1875
38.6875
37.375
36.8125
36.6875
36.3125
35.6875
35.0625
34.4375
34.0
33.75
33.6875
33.625
33.5
33.375
33.25
33.1875
33.25
33.375
33.625
33.875
34.125
34.375
34.6875
34.9375
35.375
35.75
36.25
37.125
38.8125
41.3125
43.75
45.4375
46.25
47.0625
48.3125
50.125
51.8125
52.8125
52.9375
52.375
51.375
49.9375
48.3125
46.6875
44.9375
43.625
43.0625
42.5625
41.75
40.875
40.0625
39.3125
38.75
38.375
38.0
37.625
37.25
36.8125
36.3125
35.875
35.375
34.875
34.375
33.9375
33.5625
33.25
33.0
32.8125
32.75
33.0625
34.0
36.1875
39.125
41.6875
43.125
43.8125
44.5
45.75
47.25
48.4375
48.75
48.375
47.4375
46.375
45.25
43.8125
42.1875
40.75
40.0
39.625
39.1875
38.5625
37.875
37.1875
36.5625
36.0625
35.75
35.5
35.25
34.9375
34.5625
34.1875
33.8125
33.5
33.125
32.6875
32.3125
32.0625
31.75
31.5
31.3125
31.1875
31.1875
31.6875
33.0
35.5
38.5625
40.9375
42.1875
42.9375
43.875
45.375
47.0625
48.25
48.625
48.25
47.25
46.1875
45.0625
43.5625
41.8125
40.5625
39.9375
39.625
39.0625
38.3125
37.625
36.875
36.3125
35.9375
35.6875
35.375
35.0625
34.75
34.4375
34.125
33.75
33.375
33.0625
32.6875
32.375
32.0
31.6875
31.4375
31.25
31.125
31.125
31.625
33.0
35.5625
38.625
40.8125
42.0
42.75
43.75
45.3125
47.0
48.1875
48.4375
48.0
47.0625
45.9375
44.8125
43.3125
41.5625
40.25
39.75
39.5
38.875
38.1875
37.4375
36.75
36.1875
35.875
35.625
35.3125
35.0625
34.75
34.375
34.0
33.6875
33.375
33.0
32.625
32.3125
31.9375
31.625
31.375
31.25
31.125
31.25
31.875
33.5
36.1875
39.125
41.125
42.1875
42.9375
44.0625
45.6875
47.375
48.375
48.5
47.875
46.875
45.75
44.5
42.9375
41.3125
40.1875
39.75
39.375
38.75
38.0625
37.3125
36.625
36.125
35.8125
35.5625
35.25
35.0
34.625
34.3125
34.0
33.6875
33.3125
32.875
32.4375
32.1875
31.875
31.625
31.375
31.25
31.25
31.5625
32.5
34.6875
37.6875
40.1875
41.5625
42.25
42.875
44.0625
45.5
46.5625
46.8125
46.25
45.125
43.6875
42.3125
40.625
38.875
37.375
36.8125
36.5625
36.0
35.5
34.875
34.25
33.8125
33.5625
33.4375
33.375
33.3125
33.1875
32.9375
32.6875
32.375
32.125
31.9375
31.75
31.625
31.5
31.4375
31.375
31.4375
31.625
32.0
33.0625
35.125
37.9375
40.5625
42.5625
44.0625
45.6875
47.6875
49.875
51.6875
52.5625
52.5
51.8125
50.5625
49.125
47.625
45.75
44.0625
43.25
42.875
42.125
41.1875
40.25
39.3125
38.625
38.125
37.75
37.375
37.0625
36.625
36.25
35.875
35.4375
35.0625
34.625
34.25
33.875
33.4375
33.0625
32.75
32.5
32.3125
32.3125
32.75
34.0625
36.625
39.5625
41.875
43.0625
43.75
44.625
46.0
47.625
48.6875
48.8125
48.25
47.1875
46.0625
44.875
43.3125
41.6875
40.375
39.8125
39.5625
39.0625
38.375
37.6875
36.875
36.375
35.9375
35.625
35.375
35.125
34.875
34.5
34.125
33.75
33.375
33.25
33.1875
32.6875
32.375
32.125
31.8125
31.6875
31.8125
32.5625
34.4375
37.3125
40.0
41.5625
42.375
43.1875
44.4375
46.0
47.4375
48.0625
47.9375
47.1875
46.0625
44.9375
43.625
42.0
40.625
39.875
39.5625
39.0
38.375
37.6875
36.9375
36.375
35.9375
35.6875
35.4375
35.125
34.75
34.4375
34.125
33.8125
33.4375
33.0625
32.625
32.3125
31.9375
31.75
31.5625
31.375
31.375
31.625
32.625
34.8125
37.75
40.25
41.6875
42.4375
43.3125
44.6875
46.375
47.75
48.3125
48.0625
47.25
46.1875
45.0625
43.625
41.9375
40.5625
39.8125
39.5625
39.0
38.3125
37.625
36.875
36.375
35.9375
35.625
35.375
35.125
34.8125
34.4375
34.125
33.8125
33.5
33.1875
32.8125
32.4375
32.125
31.75
31.5
31.25
31.125
31.125
31.25
32.0625
33.875
36.75
39.625
41.375
42.3125
43.125
44.375
46.125
47.75
48.625
48.6875
48.0625
47.0
45.8125
44.5625
42.9375
41.375
40.375
40.0625
39.5625
38.875
38.25
37.4375
36.75
36.3125
36.0625
35.75
35.5
35.25
34.875
34.4375
34.0625
33.75
33.375
32.75
32.125
31.5625
30.9375
30.3125
29.75
29.25
28.8125
28.5625
28.625
29.5625
31.8125
34.5
36.75
38.0
38.8125
39.75
41.3125
43.0625
44.3125
44.8125
44.5625
43.8125
43.0625
42.25
41.0
39.625
38.5625
38.375
38.375
38.0
37.5625
37.125
36.625
36.375
36.1875
36.1875
36.1875
36.25
36.25
36.25
36.1875
36.1875
36.25
36.3125
36.3125
36.125
35.875
35.5
35.0625
34.5625
34.0625
33.8125
33.75
34.3125
35.8125
38.4375
41.4375
43.6875
44.8125
45.375
46.3125
47.8125
49.5
50.75
50.9375
50.4375
49.5
48.25
47.0
45.5625
43.875
42.375
41.6875
41.375
40.6875
39.9375
39.1875
38.375
37.8125
37.3125
36.875
36.5625
36.1875
35.875
35.5625
35.125
34.75
34.3125
33.875
33.5625
33.1875
32.875
32.625
32.4375
32.4375
32.625
33.5
35.5625
38.4375
40.9375
42.375
43.125
43.875
45.125
46.6875
47.9375
48.375
48.0625
47.125
46.0
44.9375
43.5625
41.875
40.5625
39.875
39.5625
39.0
38.375
37.6875
36.9375
36.4375
36.0
35.6875
35.4375
35.125
34.8125
34.5
34.25
33.875
33.5
33.125
32.6875
32.4375
32.125
31.875
31.625
31.5
31.5
31.75
32.8125
35.0625
38.0
40.5
41.9375
42.75
43.625
45.0
46.75
48.125
48.625
48.375
47.5
46.375
45.25
43.8125
42.1875
40.75
40.0625
39.6875
39.1875
38.5
37.8125
37.125
36.5625
36.1875
35.875
35.5625
35.3125
35.125
34.75
34.375
34.0
33.5625
33.1875
32.8125
32.5
32.25
32.0
31.75
31.5625
31.625
32.125
33.5
36.0625
38.9375
41.0625
42.1875
42.9375
43.9375
45.5625
47.25
48.375
48.5625
48.125
47.125
46.0
44.8125
43.3125
41.6875
40.5
40.0
39.625
39.0625
38.375
37.5625
36.875
36.4375
36.125
35.875
35.5625
35.3125
34.9375
34.625
34.3125
34.0
33.625
33.25
32.875
32.5
32.1875
31.9375
31.6875
31.5
31.375
31.4375
32.0
33.5
36.125
39.125
41.25
42.375
43.125
44.25
45.9375
47.6875
48.8125
49.0
48.625
47.6875
46.5625
45.375
43.875
42.1875
41.0
40.5
40.0625
39.375
38.6875
37.9375
37.25
36.75
36.375
36.125
35.875
35.5625
35.25
34.875
34.5625
34.1875
33.875
33.5
33.125
32.75
32.375
32.125
31.875
31.5625
31.25
31.0625
31.125
31.875
33.6875
36.1875
38.375
39.5625
40.25
41.0
42.25
43.8125
45.0
45.375
45.0
44.0625
43.0625
42.0
40.6875
39.1875
38.0
37.625
37.5625
37.1875
36.8125
36.3125
35.8125
35.5625
35.375
35.25
35.125
35.0625
34.875
34.625
34.4375
34.1875
34.125
34.0
33.875
33.8125
33.875
34.0
34.125
34.3125
34.625
35.0
35.75
37.5
40.25
43.125
45.125
46.0625
46.6875
47.75
49.4375
51.25
52.5
52.8125
52.375
51.375
50.0
48.5
46.9375
45.1875
43.6875
43.0
42.5625
41.75
40.9375
40.125
39.375
38.8125
38.5
38.125
37.75
37.375
36.9375
36.5625
36.125
35.625
35.1875
34.6875
34.25
33.875
33.5
33.1875
32.9375
32.75
32.8125
33.375
35.0
37.6875
40.5625
42.5625
43.5625
44.1875
45.125
46.625
48.1875
49.0625
49.125
48.5
47.5
46.3125
45.125
43.5625
42.0
40.75
40.1875
39.8125
39.25
38.625
37.875
37.1875
36.6875
36.3125
36.0
35.6875
35.4375
35.125
34.75
34.3125
33.9375
33.5625
33.125
32.8125
32.4375
32.1875
32.0
31.8125
31.625
31.75
32.3125
33.9375
36.625
39.5
41.5625
42.625
43.375
44.4375
46.0625
47.6875
48.6875
48.8125
48.25
47.25
46.0625
44.875
43.3125
41.6875
40.4375
39.9375
39.5625
39.0
38.375
37.5625
36.875
36.375
36.0
35.6875
35.4375
35.1875
34.875
34.5
34.125
33.75
33.375
33.0
32.5625
32.25
32.0
31.75
31.5625
31.5
31.625
32.375
34.1875
37.0625
39.8125
41.5625
42.5
43.3125
44.5625
46.25
47.8125
48.5625
48.5625
47.9375
46.875
45.75
44.5
42.9375
41.375
40.3125
39.875
39.4375
38.8125
38.125
37.375
36.6875
36.1875
35.875
35.625
35.375
35.0625
34.75
34.4375
34.0625
33.6875
33.25
32.875
32.5
32.1875
31.875
31.625
31.4375
31.4375
31.6875
32.5625
34.625
37.5625
40.1875
41.8125
42.625
43.4375
44.75
46.5
47.9375
48.625
48.5
47.75
46.625
45.375
43.875
42.0
40.1875
39.0
38.3125
37.5
36.5625
35.6875
34.6875
33.875
33.3125
32.8125
32.5625
32.375
32.125
31.8125
31.4375
31.125
30.8125
30.5625
30.3125
30.125
30.0625
30.0
29.9375
29.875
29.875
30.0625
30.625
32.0625
34.4375
37.0625
39.1875
40.625
41.8125
43.375
45.375
47.4375
48.9375
49.625
49.75
49.375
48.8125
48.125
46.9375
45.4375
44.25
43.75
43.4375
42.625
41.625
40.5625
39.625
38.9375
38.4375
38.0
37.625
37.1875
36.75
36.25
35.75
35.3125
34.875
34.5
34.1875
33.875
33.625
33.375
33.1875
32.9375
32.5625
32.1875
31.75
31.3125
30.9375
30.6875
30.625
30.6875
31.0
31.9375
33.9375
36.875
39.9375
42.1875
43.4375
44.3125
45.4375
47.0625
48.875
49.9375
50.1875
49.8125
48.9375
47.8125
46.625
45.125
43.3125
41.8125
41.1875
40.8125
40.25
39.5625
38.75
38.0
37.375
36.9375
36.625
36.3125
36.0
35.625
35.25
34.8125
34.3125
33.8125
33.5
33.1875
32.9375
32.6875
32.625
32.625
33.0625
34.5
36.9375
39.5
41.1875
42.0625
42.8125
43.875
45.3125
46.625
47.3125
47.3125
46.625
45.4375
44.375
43.0
41.4375
40.0625
39.25
38.9375
38.375
37.8125
37.1875
36.4375
35.875
35.4375
35.0625
34.8125
34.625
34.375
34.0
33.6875
33.4375
33.0625
32.6875
32.3125
31.9375
31.625
31.3125
31.0625
30.875
30.75
30.75
31.125
32.3125
34.6875
37.75
40.25
41.6875
42.4375
43.3125
44.8125
46.5625
47.9375
48.4375
48.1875
47.3125
46.25
45.125
43.75
42.0625
40.5625
39.875
39.5
38.9375
38.3125
37.625
36.9375
36.375
35.9375
35.625
35.3125
35.0625
34.8125
34.5
34.125
33.75
33.3125
33.0
32.5625
32.1875
31.9375
31.6875
31.4375
31.3125
31.1875
31.375
32.25
34.3125
37.25
39.8125
41.4375
42.3125
43.125
44.4375
46.1875
47.625
48.3125
48.125
47.3125
46.3125
45.1875
43.875
42.25
40.75
40.0
39.6875
39.125
38.4375
37.75
37.0
36.375
35.9375
35.6875
35.4375
35.125
34.8125
34.4375
34.125
33.75
33.375
33.0
32.625
32.25
31.9375
31.6875
31.4375
31.3125
31.1875
31.3125
32.0625
33.9375
36.8125
39.5625
41.3125
42.25
43.0
44.25
45.9375
47.5
48.3125
48.25
47.5625
46.375
45.125
43.5625
41.625
39.8125
38.5625
37.875
37.0625
36.1875
35.3125
34.4375
33.625
33.125
32.75
32.5
32.25
32.0
31.6875
31.3125
30.9375
30.625
30.375
30.125
30.0
29.875
29.8125
29.75
29.75
29.75
30.0625
30.9375
32.875
35.5
37.875
39.5625
40.75
42.0625
43.8125
45.8125
47.5625
48.625
49.0
48.8125
48.25
47.625
46.6875
45.375
44.0625
43.375
43.1875
42.8125
42.0625
41.0625
39.9375
39.0625
38.4375
38.0
37.75
37.375
36.9375
36.5
36.0
35.5625
35.125
34.6875
34.25
33.8125
33.375
33.0
32.5625
32.25
32.0625
32.0
32.125
32.75
34.4375
37.1875
40.1875
42.4375
43.6875
44.375
45.25
46.625
48.0625
49.0
49.0625
48.5625
47.625
46.5625
45.4375
44.0
42.3125
40.875
40.125
39.875
39.375
38.75
38.0
37.25
36.625
36.125
35.6875
35.4375
35.125
34.8125
34.5
34.125
33.8125
33.5
33.1875
32.875
32.5625
32.1875
31.8125
31.5
31.25
31.0
30.75
30.5625
30.5
30.6875
31.625
33.6875
36.625
