0
""
""
""
""
""
""
""
""
""
""
""
""
""
""
""
""
""
""
""
""
""
""
""
""
""
""
""
""
""
""
""
""
""
""
""
""
""
""
""
""
""
""
""
""
""
""
""
""
""
""
""
""
""
""
""
""
""
""
""
""
""
""
""
""
""
""
""
""
""
""
""
""
""
""
""
""
""
""
""
""
""
""
""
""
""
""
""
""
""
""
""
""
""
""
""
""
""
""
""
""
""
""
""
""
""
""
""
""
""
""
""
""
""
""
""
""
""
""
""
""
""
""
""
""
""
""
""
""
""
""
""
""
""
""
""
""
""
""
""
""
""
""
""
""
""
""
""
""
""
""
""
""
""
""
""
""
""
""
""
""
""
""
""
""
""
""
""
""
""
""
""
""
""
""
""
""
""
""
""
""
""
""
""
""
""
""
""
""
""
""
""
""
""
""
""
""
""
""
""
""
""
""
""
""
""
""
""
""
""
""
""
""
""
""
""
""
""
""
""
""
""
""
""
""
""
""
""
""
""
""
""
""
""
""
""
""
""
""
""
""
""
""
""
""
""
""
""
""
""
""
""
""
""
""
""
""
""
""
""
""
""
""
""
""
""
""
""
""
""
""
""
""
19.625
18.875
19.1875
19.9375
20.0
19.75
19.625
19.4375
19.25
19.375
19.625
19.8125
19.9375
19.9375
20.0
20.1875
20.25
20.25
20.1875
20.125
19.875
19.75
19.875
20.125
19.9375
19.6875
19.6875
19.8125
19.8125
19.875
20.0
20.0
19.9375
19.9375
19.9375
19.875
19.75
19.5625
19.625
19.625
19.25
19.375
20.0625
20.4375
20.25
20.125
20.125
20.125
20.3125
20.3125
20.0
19.8125
19.8125
19.75
19.6875
19.6875
19.8125
19.75
19.6875
19.875
19.875
19.75
19.6875
19.75
19.5625
19.3125
19.4375
19.625
19.5625
19.4375
19.5625
19.6875
19.625
19.625
19.625
19.625
19.5625
19.5
19.4375
19.4375
19.4375
19.375
19.375
19.4375
19.5625
19.6875
19.6875
19.75
19.6875
19.5625
19.5625
19.5625
19.5625
19.4375
19.3125
19.25
19.375
19.5
19.625
19.5625
19.375
19.5
19.75
19.75
19.625
19.5
19.4375
19.4375
19.4375
19.0625
18.5
18.8125
19.375
19.375
19.375
19.5625
19.8125
19.9375
19.9375
19.875
20.0625
20.125
20.0625
20.0
20.125
20.25
20.25
20.25
20.25
20.4375
20.5
20.25
20.0625
20.25
20.375
20.125
20.0
20.25
20.375
20.25
20.1875
20.375
20.5
20.375
20.25
20.375
20.25
20.125
20.125
20.0625
19.9375
19.9375
20.0
20.0
20.0
20.0625
20.0625
20.0625
20.125
20.25
20.1875
20.0
19.875
19.9375
20.0
20.0
19.875
19.8125
19.875
20.0625
20.0
19.9375
20.0
20.0625
20.0625
19.875
19.875
19.875
19.875
19.875
19.875
19.875
19.875
19.875
19.8125
19.8125
19.875
19.8125
19.8125
19.8125
19.75
19.5625
19.6875
19.875
19.875
19.8125
19.8125
19.9375
19.875
19.8125
19.875
19.8125
19.75
19.75
19.75
19.75
19.625
19.625
19.75
19.875
19.75
19.625
19.75
19.875
19.8125
19.625
19.5625
19.625
19.6875
19.5625
19.375
19.6875
19.875
19.5625
19.375
19.5625
19.875
19.6875
19.375
19.5
19.5625
19.5625
19.625
19.625
19.4375
19.4375
19.875
19.8125
19.5
19.625
19.6875
19.5
19.375
19.5
19.375
19.3125
19.4375
19.5625
19.375
19.0
18.8125
19.1875
19.3125
19.4375
19.5625
19.5
19.625
19.875
19.875
19.9375
20.1875
20.1875
20.0625
20.125
20.375
20.375
20.125
20.0625
20.25
20.3125
20.1875
20.125
20.25
20.1875
20.125
20.3125
20.5625
20.4375
20.375
20.4375
20.375
20.1875
20.1875
20.3125
20.25
20.1875
20.125
20.125
20.125
20.1875
20.125
20.125
20.3125
20.4375
20.25
20.0
20.0
20.0
19.9375
19.8125
19.75
19.875
20.125
20.0625
19.875
19.9375
20.125
20.125
19.9375
19.875
19.9375
19.9375
19.8125
19.8125
19.875
19.9375
19.9375
20.0
19.9375
19.875
19.875
19.875
19.875
19.8125
19.8125
19.8125
19.6875
19.6875
19.8125
19.75
19.625
19.75
19.875
19.6875
19.625
19.8125
19.875
19.8125
19.8125
19.8125
19.8125
19.8125
19.8125
19.6875
19.6875
19.6875
19.75
19.6875
19.6875
19.6875
19.75
19.75
19.75
19.6875
19.5625
19.5625
19.6875
19.6875
19.4375
19.5
19.75
19.75
19.4375
19.5
19.6875
19.75
19.6875
19.6875
19.625
19.5625
19.625
19.6875
19.625
19.625
19.625
19.5
19.4375
19.625
19.625
19.375
19.4375
19.6875
19.6875
19.375
19.375
19.5
19.4375
19.375
19.3125
19.0625
18.9375
19.4375
19.625
19.5
19.6875
19.875
19.875
19.875
19.9375
20.0
20.0
20.0
20.25
20.3125
20.1875
20.125
20.25
20.375
20.3125
20.125
20.125
20.25
20.25
20.1875
20.125
20.25
20.25
20.1875
20.25
20.25
20.125
20.125
20.1875
20.1875
20.1875
20.25
20.25
20.125
20.0625
20.1875
20.1875
20.0625
20.0625
20.0625
20.125
20.1875
20.0625
19.875
20.0
20.1875
20.125
19.8125
19.875
20.0625
20.0
19.9375
19.9375
20.0625
19.9375
19.9375
20.0
19.9375
19.8125
19.875
19.9375
19.8125
19.8125
19.9375
19.75
19.625
19.6875
19.8125
19.8125
19.75
19.75
19.8125
19.8125
19.8125
19.75
19.6875
19.75
19.8125
19.875
19.875
19.875
19.8125
19.6875
19.625
19.6875
19.75
19.6875
19.625
19.5625
19.75
19.875
19.5625
19.4375
19.6875
19.9375
19.6875
19.5
19.625
19.6875
19.625
19.5625
19.5
19.75
19.875
19.8125
19.6875
19.75
19.9375
19.75
19.5
19.4375
19.625
19.5625
19.375
19.375
19.4375
19.4375
19.5
19.5625
19.4375
19.5
19.6875
19.6875
19.5625
19.625
19.625
19.5
19.4375
19.5
19.5
19.5625
19.5625
19.5625
19.5
19.5625
19.6875
19.625
19.4375
19.4375
19.5
19.5
19.4375
19.375
19.375
19.375
19.3125
19.4375
19.625
19.5625
19.375
19.375
19.625
19.5
19.0
19.125
19.5625
19.5625
19.5
19.8125
19.875
19.75
19.875
20.0625
20.0
20.0
20.0625
20.125
20.125
20.25
20.3125
20.25
20.25
20.375
20.3125
20.25
20.3125
20.3125
20.1875
20.1875
20.1875
20.25
20.125
20.125
20.1875
20.1875
20.125
20.1875
20.125
20.0625
20.0625
20.0625
20.125
20.0625
20.0625
20.0625
20.0625
20.1875
20.125
20.0625
20.0625
20.0625
20.0625
20.0
19.9375
19.9375
19.9375
19.9375
19.9375
19.9375
19.9375
20.0
20.0625
19.9375
19.875
19.9375
19.9375
19.75
19.625
19.625
19.75
19.8125
19.875
19.75
19.6875
19.875
20.0
19.75
19.4375
19.5625
19.75
19.6875
19.625
19.75
19.875
19.8125
19.8125
19.875
19.875
20.0
19.9375
19.8125
19.8125
19.875
19.6875
19.4375
19.5625
19.6875
19.5
19.3125
19.5625
19.8125
19.75
19.625
19.75
19.8125
19.75
19.75
19.6875
19.6875
19.6875
19.6875
19.4375
19.3125
19.625
19.75
19.4375
19.25
19.375
19.3125
19.0625
19.125
19.4375
19.625
19.5625
19.4375
19.5
19.6875
19.8125
19.8125
19.6875
19.6875
19.5625
19.5625
19.5
19.375
19.375
19.4375
19.5625
19.6875
19.5625
19.375
19.3125
19.4375
19.5
19.25
19.0625
19.1875
19.3125
19.1875
19.25
19.5
19.4375
19.25
19.5625
19.9375
19.875
19.625
19.625
19.75
19.625
19.375
19.375
19.3125
19.1875
19.1875
19.125
19.125
19.1875
19.3125
19.25
19.1875
19.25
19.4375
19.4375
19.375
19.375
19.4375
19.4375
19.375
19.0625
19.0625
19.5
19.625
19.5625
19.6875
19.875
19.9375
19.9375
19.9375
19.8125
19.875
20.125
20.0625
20.0
20.3125
20.5
20.1875
19.875
20.1875
20.4375
20.125
19.9375
20.25
20.375
20.25
20.1875
20.125
20.25
20.4375
20.25
19.875
19.75
20.0625
20.125
20.0
19.9375
20.125
20.1875
19.9375
19.8125
19.8125
19.875
19.9375
19.8125
19.8125
20.0625
20.1875
20.125
20.0
20.0
20.125
20.125
20.0
19.875
19.8125
19.8125
20.0
20.0
19.8125
19.75
19.875
19.9375
19.8125
19.75
19.75
19.875
19.875
19.8125
19.8125
19.9375
20.0
19.875
19.625
19.625
19.875
19.8125
19.5625
19.6875
19.875
19.875
19.6875
19.8125
19.875
19.6875
19.625
19.625
19.6875
19.75
19.875
19.8125
19.75
19.9375
19.8125
19.4375
19.25
19.25
19.3125
19.3125
19.25
19.1875
19.3125
19.75
20.25
20.1875
19.875
19.8125
19.75
19.6875
19.8125
20.0
19.75
19.375
19.5625
20.0
19.75
19.1875
19.0
19.0625
19.375
19.8125
19.75
19.25
19.0625
19.375
19.625
19.3125
19.0625
19.1875
19.375
19.5625
19.75
19.8125
19.6875
19.5
19.6875
19.75
19.5625
19.375
19.375
19.375
19.3125
19.1875
19.0625
19.125
19.3125
19.375
19.25
19.25
19.4375
19.5
19.5
19.5
19.5625
19.5625
19.5625
19.625
19.6875
19.5625
19.3125
19.1875
19.1875
19.375
19.5
19.4375
19.6875
20.0
19.5625
19.25
19.75
20.0625
19.6875
19.3125
19.4375
19.625
19.75
19.625
19.5
19.375
19.125
18.9375
19.0
19.0
18.9375
19.0625
19.3125
19.4375
19.3125
19.3125
19.4375
19.5
19.4375
19.5
19.5
19.375
19.375
19.375
19.25
19.0625
19.0625
19.25
19.375
19.4375
19.3125
19.0625
19.0625
19.25
19.25
18.9375
18.75
18.9375
19.1875
19.1875
19.1875
19.375
19.5625
19.4375
19.0625
19.0625
19.25
19.1875
19.125
19.375
19.625
19.5
19.3125
19.375
19.5
19.5
19.375
19.3125
19.4375
19.4375
19.0625
18.875
19.0
19.1875
19.0625
19.125
19.4375
19.4375
19.3125
19.4375
19.75
19.625
19.375
19.3125
19.375
19.3125
19.1875
19.125
19.1875
19.1875
19.1875
19.1875
19.1875
19.1875
19.3125
19.3125
19.0625
19.1875
19.375
19.3125
19.125
19.125
19.25
19.1875
19.125
19.3125
19.3125
19.1875
19.1875
19.375
19.375
19.25
19.25
19.25
19.1875
19.1875
19.125
19.0
18.9375
19.0625
19.125
19.0
18.9375
19.0625
19.1875
19.0625
19.125
19.3125
19.3125
19.1875
19.25
19.3125
19.25
19.3125
19.4375
19.3125
19.25
19.3125
19.25
19.1875
19.125
19.0625
19.125
19.3125
19.0625
18.6875
18.8125
19.125
19.125
19.0
19.0
19.125
19.25
19.375
19.25
19.25
19.4375
19.375
19.25
19.1875
19.25
19.125
18.9375
19.0625
19.1875
19.0625
18.9375
19.0625
19.1875
19.0625
19.0625
19.125
19.125
19.0625
19.0
19.0625
19.0625
19.0625
19.1875
19.1875
19.0625
19.0
19.1875
19.1875
19.0
19.0
19.0625
19.125
19.0625
19.0625
19.1875
19.125
19.125
19.1875
19.1875
19.1875
19.125
19.0
19.0625
19.1875
19.125
18.9375
19.0
19.1875
19.125
19.0625
19.0625
19.125
19.0625
19.0625
19.0625
18.875
18.9375
19.125
19.0625
18.875
19.0625
19.25
19.125
19.0
19.0
19.125
19.1875
19.0625
18.9375
18.9375
19.125
19.1875
19.0
18.875
19.0625
19.125
18.9375
18.875
19.1875
19.1875
18.9375
19.0
19.125
19.0625
19.0
19.0625
19.0
18.9375
19.0
19.0625
18.8125
18.8125
19.25
19.1875
18.8125
18.875
19.3125
19.1875
18.8125
18.875
19.125
19.0
18.8125
18.875
19.0625
18.9375
18.9375
19.0
18.9375
18.9375
19.125
19.0625
18.75
18.875
19.25
19.125
18.8125
18.9375
19.125
19.125
18.875
18.875
19.0
19.125
19.0
18.8125
18.875
19.125
19.125
18.875
18.75
19.0625
19.1875
18.9375
18.75
19.0
19.125
19.0
18.9375
18.9375
18.9375
19.0
19.0
18.875
18.875
18.875
18.9375
19.0
18.9375
18.875
18.875
18.875
18.9375
18.9375
18.9375
18.9375
19.0625
19.125
18.9375
18.8125
18.9375
19.0
18.875
18.8125
18.9375
18.9375
18.875
18.875
19.0
18.9375
18.875
18.875
18.9375
19.0
19.0625
18.9375
18.75
18.9375
19.125
18.8125
18.6875
19.0
19.1875
18.875
18.8125
19.0
19.125
19.0625
19.0
18.9375
18.875
18.9375
18.875
18.8125
18.875
18.9375
18.8125
18.9375
19.1875
19.125
18.875
18.9375
19.0625
18.8125
18.625
18.75
18.875
18.6875
18.625
18.9375
19.0625
18.875
18.8125
18.9375
19.0625
19.0
18.8125
18.6875
18.8125
18.875
18.75
18.625
18.8125
18.9375
18.8125
18.8125
18.9375
18.9375
18.75
18.6875
18.8125
18.8125
18.75
18.8125
18.8125
18.8125
18.75
18.875
18.9375
19.0
18.9375
18.8125
18.8125
18.9375
19.0
18.8125
18.8125
19.0
19.0625
18.6875
18.5
18.75
18.9375
18.625
18.625
19.0
19.0
18.75
18.75
18.875
18.8125
18.75
18.8125
18.8125
18.75
18.875
18.9375
18.75
18.875
19.0625
18.9375
18.8125
18.875
18.9375
18.75
18.6875
18.875
19.0625
18.875
18.625
18.75
18.9375
18.75
18.6875
18.8125
18.8125
18.8125
18.9375
19.0625
18.9375
18.8125
18.875
18.875
18.75
18.6875
18.75
18.8125
18.875
18.875
18.8125
18.8125
18.9375
18.9375
18.8125
18.75
18.8125
18.8125
18.75
18.8125
18.875
18.8125
18.75
18.75
18.8125
19.0
18.875
18.625
18.8125
18.8125
18.4375
18.25
18.625
19.0625
19.0625
18.8125
18.625
18.5625
18.5625
18.6875
18.875
19.0
18.875
18.625
18.5
18.5625
18.5625
18.5625
18.5625
18.5625
18.625
18.625
18.625
18.625
18.75
18.75
18.6875
18.6875
18.75
18.625
18.5625
18.8125
18.75
18.5625
18.6875
18.875
18.9375
18.9375
18.9375
19.0
19.0
18.6875
18.5625
18.6875
18.625
18.4375
18.625
19.0
18.9375
18.75
19.0625
19.3125
19.1875
19.0
19.0625
19.0625
18.875
18.8125
18.9375
19.125
19.125
18.75
18.4375
18.75
19.0625
18.6875
18.25
18.5
18.9375
18.9375
18.8125
18.9375
18.75
18.5625
18.8125
19.0
18.875
18.8125
18.875
18.75
18.75
19.0
19.0625
18.875
18.6875
18.8125
18.8125
18.5625
18.3125
18.1875
18.25
18.4375
18.9375
19.1875
18.9375
18.8125
18.9375
19.0
18.9375
18.8125
18.6875
18.5
18.375
18.5625
18.8125
18.875
19.0
19.0625
18.8125
18.6875
18.6875
18.625
18.4375
18.375
18.375
18.25
18.3125
18.625
18.9375
18.9375
18.8125
18.875
18.875
18.75
18.75
18.8125
18.6875
18.625
18.75
18.8125
18.6875
18.6875
18.8125
18.75
18.6875
18.75
18.75
18.5
18.5625
18.75
18.5625
18.3125
18.4375
18.6875
18.625
18.625
18.75
18.75
18.6875
18.875
18.9375
18.75
18.625
18.75
18.625
18.5
18.5625
18.75
18.625
18.5625
18.6875
18.6875
18.625
18.6875
18.6875
18.625
18.625
18.6875
18.5625
18.5625
18.625
18.625
18.625
18.6875
18.6875
18.5625
18.625
18.6875
18.625
18.5625
18.5625
18.625
18.625
18.5625
18.5625
18.75
18.75
18.5625
18.5
18.6875
18.75
18.625
18.5
18.5625
18.6875
18.8125
18.625
18.375
18.625
18.875
18.625
18.375
18.625
18.9375
18.6875
18.4375
18.5625
18.75
18.6875
18.625
18.625
18.625
18.6875
18.6875
18.5625
18.5
18.75
18.75
18.5625
18.5
18.625
18.6875
18.5625
18.5
18.5
18.5
18.6875
18.6875
18.5625
18.5625
18.75
18.6875
18.5625
18.6875
18.75
18.5625
18.5
18.6875
18.6875
18.5
18.5
18.625
18.625
18.6875
18.75
18.625
18.625
18.625
18.5625
18.5625
18.5625
18.5625
18.5625
18.5625
18.5625
18.6875
18.6875
18.6875
18.625
18.625
18.625
18.625
18.5625
18.5
18.5
18.5625
18.625
18.625
18.6875
18.75
18.6875
18.5625
18.5625
18.6875
18.5
18.25
18.375
18.6875
18.75
18.5625
18.4375
18.5
18.625
18.625
18.4375
18.5
18.625
18.625
18.5
18.5
18.625
18.5625
18.5
18.5
18.5625
18.625
18.5625
18.5625
18.5625
18.625
18.6875
18.5625
18.4375
18.4375
18.625
18.625
18.5
18.4375
18.5
18.625
18.625
18.5625
18.5
18.5
18.5625
18.5
18.5
18.5
18.5625
18.625
18.625
18.5625
18.5625
18.6875
18.5
18.375
18.5625
18.75
18.5625
18.4375
18.5
18.625
18.625
18.5
18.4375
18.5
18.6875
18.625
18.375
18.4375
18.75
18.75
18.5
18.375
18.625
18.6875
18.5
18.4375
18.5
18.5625
18.625
18.5625
18.4375
18.4375
18.5
18.5625
18.5
18.5
18.5625
18.6875
18.625
18.5
18.4375
18.5625
18.625
18.625
18.5625
18.4375
18.4375
18.5625
18.625
18.5
18.5625
18.5625
18.5
18.5
18.625
18.5
18.375
18.5
18.625
18.5
18.4375
18.5
18.5625
18.625
18.625
18.5625
18.5625
18.625
18.625
18.5625
18.5
18.5625
18.5625
18.375
18.5
18.6875
18.625
18.375
18.4375
18.625
18.625
18.4375
18.4375
18.5
18.5625
18.5625
18.5625
18.4375
18.4375
18.5625
18.5625
18.4375
18.4375
18.5625
18.5
18.375
18.4375
18.5625
18.5625
18.5
18.4375
18.4375
18.5625
18.6875
18.5
18.375
18.5
18.625
18.4375
18.375
18.5
18.5
18.3125
18.4375
18.625
18.5
18.375
18.5
18.625
18.5
18.5
18.625
18.5
18.5
18.5
18.625
18.5
18.4375
18.5
18.5
18.5
18.5
18.5
18.4375
18.5
18.625
18.5
18.4375
18.5
18.5625
18.5625
18.5
18.5625
18.5625
18.5
18.5
18.5625
18.5625
18.4375
18.5
18.5625
18.5625
18.5625
18.5625
18.5
18.4375
18.5
18.5625
18.4375
18.4375
18.4375
18.5
18.4375
18.5
18.5
18.375
18.375
18.5625
18.625
18.5
18.5
18.5625
18.5625
18.375
18.375
18.5
18.375
18.375
18.625
18.625
18.4375
18.5
18.6875
18.5
18.4375
18.75
18.8125
18.3125
18.125
18.4375
18.625
18.375
18.25
18.5
18.75
18.625
18.4375
18.4375
18.5
18.5625
18.3125
18.1875
18.4375
18.6875
18.5625
18.4375
18.4375
18.4375
18.4375
18.5
18.4375
18.3125
18.3125
18.375
18.4375
18.4375
18.375
18.4375
18.5
18.5625
18.5
18.5
18.4375
18.4375
18.5
18.5
18.375
18.375
18.5
18.5625
18.5
18.4375
18.5
18.5
18.5
18.5625
18.5625
18.375
18.375
18.625
18.6875
18.5
18.4375
18.5
18.5625
18.5625
18.625
18.5625
18.625
18.8125
18.5625
18.3125
18.4375
18.6875
18.5625
18.4375
18.5625
18.6875
18.5
18.375
18.5
18.625
18.5
18.5
18.4375
18.4375
18.5
18.5
18.375
18.375
18.4375
18.5
18.4375
18.5
18.75
18.75
18.5625
18.4375
18.4375
18.4375
18.5
18.625
18.5625
18.4375
18.375
18.375
18.4375
18.625
18.5625
18.3125
18.375
18.6875
18.75
18.5625
18.4375
18.5625
18.5
18.4375
18.5625
18.625
18.5
18.4375
18.5625
18.625
18.5
18.375
18.375
18.4375
18.5625
18.5
18.3125
18.4375
18.5625
18.5625
18.5625
18.5625
18.5625
18.5625
18.5625
18.5
18.5
18.5
18.5
18.5
18.5
18.625
18.6875
18.625
18.4375
18.4375
18.5625
18.625
18.5
18.375
18.375
18.5
18.4375
18.4375
18.4375
18.5625
18.5625
18.5
18.625
18.6875
18.625
18.4375
18.375
18.5
18.625
18.5625
18.3125
18.3125
18.5625
18.6875
18.625
18.4375
18.5
18.625
18.6875
18.5
18.375
18.4375
18.5
18.4375
18.375
18.25
18.25
18.25
18.4375
18.5
18.4375
18.4375
18.5
18.625
18.625
18.6875
18.625
18.4375
18.4375
18.5625
18.5
18.4375
18.4375
18.5625
18.4375
18.4375
18.5
18.5
18.375
18.4375
18.5625
18.4375
18.3125
18.3125
18.375
18.375
18.5
18.5625
18.5625
18.625
18.75
18.6875
18.375
18.3125
18.4375
18.5625
18.4375
18.3125
18.3125
18.4375
18.5625
18.5
18.5625
18.8125
18.9375
18.8125
18.5625
18.375
18.375
18.5
18.5
18.4375
18.5625
18.625
18.375
18.125
18.25
18.5
18.3125
17.9375
17.875
18.375
18.8125
18.5625
18.3125
18.6875
19.0625
19.0625
18.8125
18.8125
18.75
18.625
18.5625
18.75
18.5
18.0
18.1875
18.5625
18.3125
18.25
18.25
17.9375
18.1875
18.4375
18.375
18.25
18.3125
18.3125
18.4375
18.6875
18.75
18.5625
18.6875
18.9375
18.875
18.6875
18.6875
18.5625
18.25
18.25
18.375
18.25
18.1875
18.375
18.375
18.25
18.375
18.5
18.375
18.25
18.375
18.5
18.5
18.375
18.375
18.5
18.5625
18.3125
18.375
18.5
18.5625
18.5
18.5
18.625
18.625
18.625
18.625
18.5
18.3125
18.25
18.3125
18.1875
18.125
18.1875
18.375
18.3125
18.25
18.25
18.1875
18.3125
18.5
18.625
18.6875
18.75
18.625
18.625
18.75
18.8125
18.625
18.5
18.5625
18.4375
18.375
18.3125
18.1875
18.125
18.125
18.25
18.3125
18.3125
18.1875
18.0625
18.1875
18.5
18.5625
18.4375
18.5625
18.875
18.875
18.6875
18.6875
18.75
18.75
18.5625
18.4375
18.4375
18.3125
18.0
17.875
18.0
18.25
18.25
18.0625
18.125
18.1875
18.1875
18.375
18.5
18.5
18.5625
18.8125
18.875
18.875
18.875
18.8125
18.625
18.4375
18.3125
18.25
18.375
18.4375
18.1875
18.0625
18.1875
18.25
18.125
18.0625
18.25
18.25
18.0
18.0625
18.375
18.5625
18.375
18.125
18.3125
18.75
18.8125
18.4375
18.375
18.8125
19.125
18.875
18.375
18.25
18.5
18.75
18.5625
18.25
18.125
18.1875
18.3125
18.3125
18.0625
17.9375
17.9375
17.875
17.9375
18.3125
18.5625
18.5625
18.625
18.6875
18.9375
18.875
18.625
18.8125
19.125
18.9375
18.9375
19.1875
19.3125
19.25
19.3125
19.4375
19.5
19.5625
19.6875
19.8125
19.8125
19.75
19.75
19.875
19.8125
19.75
19.75
19.9375
20.125
20.0
19.75
19.75
19.9375
20.0
19.8125
19.875
20.1875
20.4375
20.375
20.4375
20.375
20.1875
20.125
20.125
20.125
20.125
20.0
19.6875
19.5
19.6875
19.75
19.4375
19.25
19.375
19.5
19.4375
19.6875
20.0625
19.8125
19.4375
19.75
20.1875
19.9375
19.5
19.75
20.1875
20.0625
19.75
19.6875
19.875
19.8125
19.6875
19.625
19.5625
19.3125
19.0
18.875
18.875
19.3125
19.5625
19.1875
18.9375
19.375
19.625
19.5
19.375
19.5
19.6875
19.875
20.0625
20.0625
19.9375
19.875
19.75
19.625
19.75
19.375
18.9375
19.375
19.875
19.5
18.8125
18.6875
19.125
19.375
19.0625
19.0
19.25
19.3125
19.1875
19.1875
19.25
19.3125
19.4375
19.5625
19.625
19.6875
19.875
19.8125
19.6875
19.75
19.75
19.375
19.125
19.125
19.125
18.9375
18.75
18.8125
18.75
18.8125
19.125
19.1875
19.125
19.25
19.5
19.5
19.4375
19.4375
19.5625
19.5
19.5
19.5625
19.4375
19.4375
19.5
19.5625
19.375
19.125
19.0
19.0
19.0
18.875
18.625
18.8125
19.125
19.125
18.8125
18.9375
19.25
19.5
19.4375
19.3125
19.3125
19.4375
19.3125
19.1875
19.3125
19.3125
19.0625
19.0625
19.25
19.125
18.9375
19.0
19.125
19.0
18.875
19.0
19.1875
19.0625
19.0
19.125
19.1875
19.125
19.0
19.0625
19.3125
19.25
19.0625
19.0625
19.1875
19.0625
18.9375
18.9375
19.0625
19.0625
19.0
19.0
19.125
19.1875
19.0625
19.0625
19.3125
19.3125
19.0
18.75
19.0
19.3125
19.0625
18.8125
19.0
19.25
19.0
18.5625
18.6875
19.0
19.1875
19.0625
18.875
19.0625
19.25
19.1875
19.0625
19.0
19.125
19.0
18.8125
18.75
18.875
18.875
18.75
18.875
19.0625
19.0
18.8125
18.9375
19.125
19.0625
18.875
18.9375
19.5
19.875
19.6875
19.5625
19.6875
19.8125
19.875
19.875
19.8125
19.875
20.0
19.9375
19.9375
20.0625
20.0625
19.8125
19.8125
19.9375
19.875
19.6875
19.75
19.75
19.6875
19.75
19.9375
19.875
19.6875
19.8125
19.9375
19.875
19.75
19.8125
19.875
19.875
19.8125
19.6875
19.75
19.75
19.5625
19.3125
19.3125
19.75
20.0
19.4375
19.125
19.75
20.1875
19.6875
19.25
19.5625
20.0625
19.9375
19.6875
19.75
19.875
19.8125
19.75
19.6875
19.625
19.625
19.75
19.625
19.25
18.875
18.875
19.3125
19.5625
19.125
18.6875
19.375
20.1875
20.0
19.375
19.3125
19.875
20.1875
20.0
19.625
19.5
19.6875
19.6875
19.5
19.375
19.375
19.3125
19.25
19.3125
19.1875
18.875
18.875
19.1875
19.0
18.625
18.875
19.375
19.5625
19.4375
19.25
19.3125
19.5625
19.6875
19.75
19.875
19.875
19.5625
19.375
19.375
19.3125
19.3125
19.25
19.0
18.8125
19.0625
19.4375
19.0625
18.625
18.875
19.375
19.375
19.125
19.0625
19.25
19.5625
19.5
19.25
19.25
19.5625
19.6875
19.5
19.3125
19.3125
19.3125
19.375
19.375
19.25
19.0
18.875
19.0625
19.1875
19.125
18.8125
18.6875
18.875
19.1875
19.125
18.875
19.0
19.25
19.3125
19.3125
19.3125
19.25
19.375
19.4375
19.3125
19.125
19.125
19.3125
19.25
19.1875
19.125
19.125
19.0625
19.0
19.0
19.0
18.9375
18.9375
18.9375
19.0
19.0625
19.0625
19.0
19.0625
19.125
19.0625
19.0
19.125
19.3125
19.1875
19.1875
19.3125
19.4375
19.3125
19.3125
19.25
19.1875
19.0625
19.0
19.0
18.9375
18.75
18.625
18.6875
18.8125
18.875
18.875
18.8125
18.875
19.0625
19.0625
19.0
19.0
19.25
19.3125
19.25
19.1875
19.1875
19.3125
19.3125
19.1875
19.125
19.125
19.0625
18.9375
18.8125
18.75
18.875
19.0
19.0
18.875
18.75
18.8125
19.0625
19.0
18.9375
19.0
19.1875
19.25
19.25
19.25
19.3125
19.1875
19.0625
19.0
18.875
18.875
18.875
18.875
18.8125
18.75
18.875
19.0625
19.0
18.9375
19.0
19.125
19.0
18.9375
19.0
19.0
18.8125
18.6875
18.625
18.8125
19.0
19.0625
19.0
18.9375
19.0
18.875
18.75
18.8125
18.9375
18.875
18.625
18.625
18.8125
19.0
18.875
18.8125
18.9375
19.0625
19.0
19.0
18.9375
18.875
18.875
19.0
19.0
18.75
18.75
18.9375
18.9375
18.75
18.75
18.875
18.875
18.875
18.9375
18.9375
18.9375
18.875
18.875
18.875
19.0625
19.0
18.75
18.75
18.9375
18.9375
18.8125
18.75
18.8125
18.8125
18.75
18.75
18.75
18.8125
18.8125
18.75
18.8125
19.0
18.9375
18.625
18.625
18.875
19.0
18.875
18.875
19.0
19.0625
19.0
18.8125
18.6875
18.6875
18.75
18.75
18.6875
18.625
18.625
18.6875
18.75
18.6875
18.8125
19.0
18.75
18.6875
19.0625
19.25
18.9375
18.625
18.8125
19.0
18.9375
18.8125
18.6875
18.8125
18.9375
18.75
18.5
18.6875
18.9375
18.8125
18.75
18.8125
18.6875
18.625
18.75
18.8125
18.6875
18.8125
19.1875
19.0625
18.625
18.625
19.0
18.9375
18.4375
18.375
18.875
19.3125
19.0625
18.75
18.875
19.0625
18.9375
18.6875
18.5625
18.6875
18.8125
18.6875
18.5625
18.5625
18.75
18.875
18.75
18.75
18.8125
18.9375
18.875
18.75
18.6875
18.8125
19.0
18.8125
18.4375
18.4375
18.875
19.0
18.6875
18.5625
18.75
18.9375
18.9375
18.75
18.75
18.9375
19.1875
19.0
18.625
18.5625
18.875
19.0
18.75
18.4375
18.3125
18.5625
18.625
18.4375
18.5
18.875
18.6875
18.25
18.4375
19.3125
19.5625
19.0625
18.75
19.0625
19.1875
18.875
18.625
18.75
18.9375
18.9375
18.5
17.875
18.4375
19.25
18.9375
18.25
18.375
18.6875
18.5625
18.375
18.5
18.6875
18.8125
18.8125
18.8125
18.9375
19.0625
18.875
18.75
18.875
18.9375
18.6875
18.375
18.5625
18.8125
18.75
18.5
18.5625
18.9375
18.8125
18.5
18.5
18.9375
18.75
18.375
18.5
19.0
18.9375
18.625
18.5625
18.625
18.4375
18.4375
18.625
18.75
18.8125
18.8125
18.75
18.875
18.9375
18.8125
18.625
18.625
18.625
18.375
18.5
18.8125
18.875
18.5625
18.3125
18.5
18.875
18.875
18.75
18.75
18.875
18.8125
18.625
18.625
18.75
18.8125
18.75
18.625
18.375
18.375
18.8125
19.0
18.6875
18.5
18.5625
18.6875
18.6875
18.75
18.75
18.4375
18.1875
18.3125
18.5625
18.5
18.5
18.75
18.875
18.6875
18.4375
18.5625
18.875
18.6875
18.4375
18.625
18.5
18.25
18.25
18.4375
18.5
18.4375
18.25
18.25
18.5625
18.9375
19.125
18.9375
18.75
18.625
18.375
18.1875
18.5625
19.0625
18.9375
18.6875
18.875
19.0
18.5625
18.3125
19.1875
19.5
18.3125
17.875
18.875
19.375
19.0
18.6875
18.75
18.875
18.75
18.4375
18.0
18.5
19.25
18.625
17.875
18.4375
19.125
19.0
18.8125
18.875
18.75
18.625
18.875
19.125
19.0
18.875
18.6875
18.25
18.0
18.1875
18.5625
18.625
18.5
18.0625
17.75
18.125
18.875
18.6875
17.8125
17.75
18.5625
18.9375
18.6875
18.625
18.8125
18.8125
18.75
18.75
18.625
18.625
18.9375
19.5625
19.6875
18.875
18.25
18.3125
18.3125
18.0
18.0625
18.5625
18.9375
19.0625
18.9375
18.8125
18.625
18.625
18.625
18.75
18.625
18.4375
18.4375
18.375
18.25
18.3125
18.5625
18.75
18.625
18.4375
18.25
18.0
17.9375
17.9375
18.0
18.0
18.0
18.125
18.3125
18.5625
18.875
19.0
18.8125
18.75
18.625
18.3125
18.25
18.5625
18.8125
18.8125
18.75
18.6875
18.75
18.8125
18.75
18.75
18.8125
18.75
18.5625
18.4375
18.6875
18.75
18.5
18.3125
18.4375
18.5625
18.625
18.5625
18.5
18.6875
18.8125
18.75
18.625
18.625
18.625
18.5625
18.5
18.4375
18.4375
18.4375
18.4375
18.4375
18.375
18.25
18.1875
18.3125
18.4375
18.375
18.3125
18.375
18.4375
18.3125
18.25
18.5
18.6875
18.5
18.375
18.5625
18.6875
18.5625
18.4375
18.5625
18.5
18.5
18.625
18.5
18.375
18.5625
18.625
18.4375
18.4375
18.6875
18.6875
18.5
18.4375
18.5
18.5625
18.4375
18.4375
18.4375
18.4375
18.625
18.5625
18.4375
18.5625
18.6875
18.625
18.4375
18.4375
18.5625
18.5
18.375
18.375
18.5625
18.5
18.4375
18.4375
18.4375
18.4375
18.4375
18.5
18.5
18.4375
18.4375
18.4375
18.4375
18.375
18.375
18.375
18.375
18.4375
18.5625
18.4375
18.375
18.4375
18.5625
18.5
18.375
18.4375
18.5625
18.4375
18.4375
18.5625
18.5
18.375
18.4375
18.625
18.5625
18.4375
18.4375
18.5
18.5625
18.4375
18.375
18.3125
18.4375
18.5
18.4375
18.375
18.5625
18.5625
18.3125
18.375
18.5625
18.5
18.25
18.3125
18.5
18.5
18.375
18.375
18.4375
18.4375
18.4375
18.4375
18.5
18.4375
18.375
18.375
18.375
18.5
18.4375
18.3125
18.4375
18.5625
18.4375
18.375
18.375
18.5
18.4375
18.3125
18.375
18.5
18.375
18.3125
18.4375
18.5
18.5
18.5
18.5
18.5
18.5625
18.5625
18.4375
18.3125
18.4375
18.4375
18.3125
18.375
18.5
18.5
18.375
18.4375
18.5625
18.5625
18.375
18.375
18.5
18.5
18.375
18.375
18.375
18.375
18.4375
18.375
18.375
18.4375
18.4375
18.4375
18.5
18.375
18.375
18.375
18.5
18.4375
18.3125
18.375
18.4375
18.4375
18.4375
18.4375
18.5
18.4375
18.4375
18.375
18.375
18.4375
18.4375
18.4375
18.375
18.375
18.4375
18.4375
18.375
18.4375
18.5
18.375
18.3125
18.375
18.4375
18.375
18.3125
18.25
18.3125
18.4375
18.5
18.375
18.3125
18.4375
18.4375
18.375
18.375
18.375
18.4375
18.3125
18.25
18.3125
18.4375
18.3125
18.25
18.25
18.375
18.375
18.375
18.3125
18.3125
18.3125
18.4375
18.4375
18.25
18.25
18.5
18.5
18.3125
18.3125
18.4375
18.3125
18.25
18.375
18.375
18.3125
18.3125
18.4375
18.375
18.3125
18.375
18.4375
18.3125
18.25
18.4375
18.5
18.3125
18.25
18.375
18.5
18.4375
18.3125
18.25
18.3125
18.3125
18.4375
18.3125
18.25
18.3125
18.4375
18.3125
18.1875
18.3125
18.375
18.1875
18.25
18.375
18.375
18.3125
18.3125
18.375
18.375
18.375
18.375
18.3125
18.3125
18.3125
18.3125
18.375
18.375
18.3125
18.3125
18.3125
18.375
18.3125
18.3125
18.375
18.4375
18.25
18.25
18.375
18.375
18.25
18.25
18.375
18.375
18.3125
18.3125
18.3125
18.3125
18.375
18.4375
18.25
18.1875
18.375
18.375
18.25
18.125
18.3125
18.375
18.3125
18.3125
18.3125
18.3125
18.3125
18.375
18.375
18.25
18.125
18.3125
18.4375
18.375
18.25
18.25
18.375
18.4375
18.3125
18.25
18.25
18.375
18.3125
18.125
18.1875
18.375
18.375
18.25
18.25
18.375
18.375
18.3125
18.3125
18.3125
18.3125
18.375
18.375
18.3125
18.3125
18.3125
18.25
18.25
18.3125
18.4375
18.375
18.25
18.1875
18.375
18.5
18.3125
18.125
18.25
18.4375
18.375
18.25
18.25
18.25
18.375
18.3125
18.1875
18.1875
18.3125
18.3125
18.3125
18.3125
18.3125
18.3125
18.3125
18.3125
18.3125
18.3125
18.25
18.25
18.3125
18.375
18.25
18.1875
18.25
18.375
18.375
18.3125
18.3125
18.3125
18.3125
18.3125
18.25
18.1875
18.25
18.4375
18.4375
18.25
18.125
18.3125
18.375
18.3125
18.3125
18.3125
18.3125
18.375
18.3125
18.25
18.25
18.375
18.3125
18.25
18.3125
18.3125
18.25
18.25
18.375
18.375
18.1875
18.25
18.3125
18.25
18.25
18.4375
18.25
18.125
18.3125
18.4375
18.25
18.125
18.3125
18.375
18.25
18.25
18.25
18.1875
18.25
18.375
18.375
18.1875
18.3125
18.4375
18.3125
18.125
18.3125
18.4375
18.25
18.125
18.25
18.3125
18.1875
18.1875
18.375
18.3125
18.25
18.3125
18.375
18.3125
18.3125
18.375
18.25
18.1875
18.3125
18.3125
18.25
18.1875
18.3125
18.375
18.25
18.1875
18.3125
18.375
18.3125
18.25
18.25
18.3125
18.25
18.1875
18.25
18.375
18.3125
18.25
18.25
18.1875
18.25
18.25
18.25
18.1875
18.3125
18.25
18.25
18.3125
18.375
18.3125
18.25
18.3125
18.3125
18.3125
18.3125
18.3125
18.3125
18.25
18.25
18.3125
18.3125
18.25
18.25
18.25
18.3125
18.3125
18.25
18.25
18.3125
18.375
18.25
18.125
18.1875
18.3125
18.375
18.25
18.1875
18.25
18.375
18.375
18.3125
18.3125
18.25
18.25
18.3125
18.375
18.25
18.1875
18.3125
18.4375
18.3125
18.25
18.25
18.3125
18.25
18.25
18.3125
18.3125
18.3125
18.3125
18.1875
18.1875
18.3125
18.3125
18.1875
18.125
18.375
18.375
18.25
18.1875
18.3125
18.375
18.25
18.1875
18.1875
18.3125
18.3125
18.1875
18.125
18.3125
18.375
18.25
18.125
18.25
18.3125
18.3125
18.25
18.25
18.375
18.375
18.1875
18.0625
18.375
18.4375
18.1875
18.0625
18.25
18.375
18.1875
18.1875
18.3125
18.375
18.3125
18.25
18.25
18.25
18.3125
18.4375
18.5
18.3125
18.125
18.1875
18.375
18.25
17.9375
17.9375
18.0
18.125
18.125
18.0625
18.125
18.3125
18.4375
18.5
18.4375
18.4375
18.5
18.375
18.3125
18.375
18.3125
18.0625
17.875
18.0
18.1875
18.0625
18.0
18.1875
18.375
18.4375
18.375
18.4375
18.5
18.4375
18.3125
18.3125
18.1875
18.0625
17.9375
17.875
18.0625
18.3125
18.25
18.125
18.3125
18.625
18.5
18.375
18.375
18.375
18.25
18.1875
18.125
17.9375
17.875
18.125
18.3125
18.1875
18.1875
18.4375
18.5625
18.4375
18.375
18.375
18.3125
18.1875
18.0625
18.0625
18.0625
18.125
18.1875
18.25
18.3125
18.4375
18.375
18.25
18.3125
18.4375
18.25
17.9375
18.0
18.1875
18.25
18.0625
18.0625
18.1875
18.375
18.375
18.3125
18.25
18.3125
18.4375
18.25
18.0
18.125
18.25
18.125
18.0
18.1875
18.375
18.375
18.25
18.3125
18.4375
18.4375
18.1875
18.0625
18.1875
18.25
18.125
18.0
18.25
18.3125
18.25
18.1875
18.375
18.375
18.25
18.25
18.375
18.3125
18.0625
18.0
18.125
18.1875
18.1875
18.1875
18.1875
18.25
18.375
18.3125
18.25
18.25
18.375
18.25
18.125
18.125
18.1875
18.125
18.125
18.25
18.3125
18.25
18.1875
18.3125
18.375
18.25
18.125
18.1875
18.25
18.125
18.125
18.1875
18.1875
18.125
18.3125
18.3125
18.1875
18.1875
18.3125
18.3125
18.3125
18.1875
18.0
18.0625
18.3125
18.3125
18.0
18.0625
18.25
18.375
18.375
18.375
18.1875
18.1875
18.3125
18.125
17.75
17.875
18.3125
18.25
18.0
18.25
18.5
18.375
18.1875
18.25
18.3125
18.25
18.25
18.1875
18.125
18.1875
18.375
18.25
18.125
18.3125
18.5
18.375
18.25
18.25
18.25
18.125
18.125
18.25
18.1875
18.25
18.3125
18.5
18.5
18.4375
18.4375
18.5
18.3125
18.3125
18.375
18.25
18.3125
18.375
18.0625
17.8125
18.0
18.125
17.9375
17.875
18.25
18.375
18.1875
18.0625
18.0
17.875
17.875
18.1875
18.3125
18.125
18.0625
18.3125
18.5
18.25
18.0625
18.1875
18.3125
18.1875
18.0625
18.0625
18.125
18.0625
18.0625
18.125
18.1875
18.1875
18.1875
18.25
18.3125
18.1875
18.125
18.125
18.1875
18.3125
18.3125
18.1875
18.375
18.5625
18.5
18.3125
18.375
18.4375
18.5
18.25
17.9375
18.0
18.1875
18.1875
18.0625
18.0625
18.1875
18.3125
18.375
18.1875
18.1875
18.1875
18.25
18.125
18.0625
18.0625
18.125
18.125
18.125
18.1875
18.1875
18.125
18.125
18.25
18.1875
18.0625
18.0
18.0625
18.0625
18.0625
18.0625
18.125
18.125
18.3125
18.4375
18.3125
18.0625
18.1875
18.375
18.25
18.0625
18.1875
18.5625
18.625
18.625
18.875
19.0625
19.1875
19.3125
19.25
19.3125
19.5
19.5
19.375
19.5
19.625
19.6875
19.6875
19.75
19.875
19.875
19.9375
19.9375
19.8125
19.8125
19.875
19.75
19.5625
19.6875
19.8125
19.6875
19.625
19.8125
19.875
19.75
19.6875
19.75
19.6875
19.625
19.5625
19.625
19.6875
19.75
19.6875
19.5625
19.5625
19.75
19.75
19.6875
19.6875
19.625
19.4375
19.4375
19.5625
19.625
19.5625
19.5625
19.5625
19.5625
19.625
19.6875
19.5625
19.5
19.5625
19.625
19.625
19.625
19.5
19.25
19.25
19.5625
19.5625
19.25
19.25
19.4375
19.4375
19.3125
19.3125
19.4375
19.3125
19.3125
19.375
19.3125
19.125
19.1875
19.4375
19.4375
19.25
19.1875
19.3125
19.375
19.375
19.3125
19.25
19.3125
19.25
19.1875
19.125
19.25
19.25
19.1875
19.1875
19.375
19.375
19.25
19.1875
19.1875
19.3125
19.25
19.25
19.25
19.125
19.125
19.1875
19.1875
19.125
19.1875
19.25
19.125
19.125
19.1875
19.1875
19.0625
19.0
19.0625
19.1875
19.125
19.0625
19.125
19.125
19.1875
19.25
19.0625
19.0
19.0625
19.125
19.0
18.875
19.125
19.125
19.0
19.0
19.125
19.1875
19.0
18.875
19.0
19.1875
19.125
18.875
18.875
19.0
19.0625
18.9375
18.875
19.125
19.3125
19.3125
19.375
19.5625
19.625
19.5625
19.5625
19.625
19.6875
19.6875
19.75
19.75
19.75
19.8125
19.875
19.8125
19.75
19.75
19.8125
19.75
19.6875
19.75
19.75
19.75
19.75
19.6875
19.6875
19.75
19.75
19.625
19.5625
19.75
19.8125
19.625
19.5
19.75
19.6875
19.5
19.5625
19.75
19.625
19.5625
19.5625
19.5625
19.5
19.5625
19.625
19.5
19.5
19.5625
19.5625
19.4375
19.375
19.5625
19.625
19.4375
19.375
19.4375
19.5
19.4375
19.375
19.375
19.4375
19.5
19.4375
19.3125
19.3125
19.375
19.5
19.4375
19.375
19.375
19.375
19.25
19.1875
19.3125
19.375
19.25
19.1875
19.25
19.3125
19.375
19.375
19.3125
19.25
19.25
19.3125
19.25
19.1875
19.1875
19.1875
19.3125
19.1875
19.125
19.25
19.3125
19.1875
19.1875
19.3125
19.3125
19.125
19.0625
19.1875
19.1875
19.0
19.125
19.25
19.1875
19.125
19.1875
19.1875
19.125
19.125
19.1875
19.125
19.0625
19.0625
19.125
19.0625
19.0625
19.0625
19.125
19.125
19.125
19.1875
19.125
19.125
19.1875
19.0625
18.875
18.9375
19.125
19.125
18.875
18.9375
19.125
19.1875
19.0625
18.9375
19.0625
19.125
19.0
18.875
18.9375
19.0625
19.0625
18.875
18.9375
19.1875
19.1875
19.0
18.9375
19.0
19.0
19.0
18.9375
18.9375
18.9375
19.0
18.875
18.9375
19.0625
19.0
18.9375
19.0
19.0
19.125
19.0625
18.75
18.8125
19.0
18.9375
18.625
18.5
19.0
19.6875
19.5625
18.875
18.9375
19.75
19.9375
18.875
17.875
18.1875
18.875
18.5
18.0
18.8125
19.875
19.4375
18.3125
18.3125
18.9375
18.875
18.4375
18.375
18.625
18.9375
18.875
18.875
19.25
19.5625
19.375
19.0
19.0625
19.25
19.25
18.9375
18.75
18.9375
19.0
18.8125
18.625
18.75
18.9375
18.75
18.5625
18.8125
18.9375
18.875
18.75
18.6875
18.6875
18.875
19.0625
19.0625
18.875
18.8125
19.0
18.9375
18.75
18.75
18.8125
18.6875
18.5625
18.5625
18.6875
18.75
18.9375
19.0625
18.9375
18.8125
19.0
19.1875
19.0
18.875
18.875
18.9375
18.8125
18.625
18.625
18.625
18.625
18.75
18.75
18.6875
18.6875
18.875
18.875
18.8125
18.8125
18.875
19.0
18.875
18.5
18.375
18.4375
18.625
18.75
18.8125
18.8125
18.9375
19.25
19.1875
18.9375
18.75
18.5
18.1875
18.25
18.75
19.0625
18.9375
18.625
18.5625
18.75
18.875
18.875
18.875
19.0625
18.9375
18.625
18.5625
18.5625
18.5
18.625
18.9375
18.875
18.625
18.6875
18.8125
18.875
18.75
18.5
18.375
18.5625
18.6875
18.5625
18.625
18.875
19.0
18.875
18.9375
19.125
19.0625
18.75
18.6875
18.875
18.875
18.625
18.4375
18.5625
18.8125
18.8125
18.6875
18.6875
18.75
18.625
18.6875
18.8125
18.8125
18.6875
18.5
18.4375
18.5625
18.5625
18.4375
18.4375
18.625
19.3125
19.875
19.625
19.375
19.6875
19.875
19.8125
19.8125
19.875
19.875
19.875
19.875
19.8125
19.75
19.75
19.875
19.875
19.8125
19.8125
19.75
19.6875
19.6875
19.75
19.75
19.6875
19.625
19.5625
19.625
19.6875
19.5625
19.5
19.6875
19.75
19.5625
19.5625
19.6875
19.6875
19.5
19.5625
19.6875
19.625
19.5
19.6875
19.6875
19.5625
19.4375
19.5
19.625
19.5
19.4375
19.4375
19.5
19.375
19.3125
19.3125
19.4375
19.5
19.375
19.25
19.375
19.4375
19.1875
19.1875
19.4375
19.5625
19.375
19.25
19.375
19.5
19.375
19.25
19.375
19.5
19.375
19.25
19.25
19.3125
19.375
19.375
19.25
19.1875
19.3125
19.3125
19.1875
19.125
19.25
19.375
19.25
19.0625
19.1875
19.3125
19.25
18.9375
19.0625
19.3125
19.25
19.0
19.0625
19.25
19.25
19.125
19.125
19.125
19.1875
19.25
19.125
19.0
19.125
19.25
19.125
19.0
19.0625
19.1875
19.1875
19.125
19.0625
19.0625
19.125
19.1875
19.0625
19.0
19.125
19.1875
19.125
19.125
19.125
19.125
19.125
19.1875
19.0625
19.0
19.0625
19.125
19.0625
19.0625
19.125
19.0625
19.0625
19.0625
19.0
19.0
19.125
19.0625
18.875
19.0
19.125
19.0625
18.875
18.9375
19.125
19.1875
19.0
18.9375
19.0
19.0
18.9375
18.9375
18.9375
19.0
19.0
19.0
19.0
19.0625
19.0625
19.0
19.0625
19.0625
19.0
18.9375
18.875
19.0
19.0
18.875
18.875
19.0
19.0
18.9375
18.9375
18.9375
18.9375
19.0
19.0625
18.9375
18.75
18.875
19.0
19.0
18.8125
18.8125
18.9375
19.0
18.875
18.875
18.875
18.875
18.875
18.9375
18.9375
18.875
18.875
18.875
18.9375
18.9375
18.875
18.875
18.9375
18.9375
18.875
18.875
18.875
18.875
18.8125
18.8125
18.875
18.9375
18.875
18.8125
18.875
19.0
18.875
18.75
18.875
19.0
18.9375
18.75
18.75
18.9375
18.9375
18.8125
18.8125
18.875
18.9375
18.8125
18.8125
18.8125
18.875
18.875
18.8125
18.8125
18.875
18.875
18.8125
18.75
18.75
18.875
18.875
18.75
18.75
18.8125
18.875
18.875
18.75
18.6875
18.75
18.9375
18.8125
18.625
18.8125
18.9375
18.875
18.6875
18.75
18.875
18.75
18.6875
18.8125
18.875
18.75
18.75
18.8125
18.8125
18.875
18.8125
18.8125
18.8125
18.8125
18.8125
18.6875
18.75
18.875
18.875
18.6875
18.75
18.8125
18.6875
18.75
18.9375
18.8125
18.5625
18.6875
18.9375
18.8125
18.5625
18.75
18.9375
18.8125
18.6875
18.6875
18.75
18.6875
18.8125
18.75
18.5625
18.625
18.875
18.8125
18.625
18.625
18.75
18.8125
18.6875
18.6875
18.8125
18.6875
18.625
18.6875
18.8125
18.75
18.625
18.625
18.75
18.875
18.6875
18.625
18.6875
18.8125
18.6875
18.625
18.6875
18.75
18.75
18.6875
18.6875
18.6875
18.8125
18.6875
18.625
18.6875
18.75
18.6875
18.625
18.625
18.6875
18.6875
18.6875
18.8125
18.6875
18.625
18.6875
18.8125
18.6875
18.5625
18.5625
18.625
18.6875
18.75
18.6875
18.5
18.5625
18.75
18.6875
18.625
18.625
18.625
18.625
18.6875
18.8125
18.625
18.5
18.625
18.75
18.6875
18.625
18.625
18.625
18.625
18.625
18.6875
18.6875
18.6875
18.5625
18.5625
18.6875
18.75
18.5625
18.5
18.6875
18.75
18.625
18.5625
18.625
18.625
18.5625
18.625
18.625
18.6875
18.625
18.5625
18.5625
18.6875
18.8125
18.625
18.4375
18.5625
18.75
18.6875
18.5
18.4375
18.5625
18.6875
18.75
18.625
18.5
18.5
18.625
18.6875
18.5625
18.5
18.625
18.625
18.5625
18.5625
18.5625
18.625
18.625
18.625
18.625
18.5625
18.5625
18.625
18.625
18.625
18.75
18.625
18.4375
18.5
18.75
18.75
18.5
18.5
18.625
18.625
18.4375
18.4375
18.5625
18.625
18.5625
18.5
18.5
18.6875
18.625
18.5625
18.5625
18.625
18.625
18.5625
18.5
18.5
18.5625
18.625
18.5625
18.5
18.5625
18.5625
18.5625
18.5625
18.625
18.5625
18.4375
18.4375
18.5
18.625
18.625
18.5625
18.5
18.5625
18.5625
18.5625
18.5
18.5625
18.5
18.4375
18.5
18.5625
18.5625
18.5
18.5
18.625
18.625
18.5
18.5
18.5625
18.6875
18.5625
18.4375
18.5
18.5
18.4375
18.4375
18.5625
18.625
18.625
18.5625
18.5625
18.625
18.625
18.5625
18.4375
18.4375
18.5
18.5
18.5
18.4375
18.4375
18.5
18.6875
18.5625
18.5625
18.5625
18.5625
18.5
18.5625
18.5
18.375
18.3125
18.5625
18.6875
18.5625
18.5
18.625
18.5625
18.4375
18.5625
18.75
18.5
18.3125
18.4375
18.625
18.5
18.375
18.3125
18.5
18.6875
18.6875
18.4375
18.4375
18.625
18.5625
18.3125
18.25
18.4375
18.4375
18.3125
18.375
18.5625
18.625
18.5
18.4375
18.5
18.625
18.5625
18.375
18.3125
18.4375
18.625
18.5625
18.3125
18.4375
18.6875
18.6875
18.4375
18.375
18.5625
18.5625
18.375
18.3125
18.4375
18.4375
18.4375
18.4375
18.375
18.5
18.625
18.5
18.4375
18.5625
18.5625
18.375
18.3125
18.5
18.5
18.3125
18.3125
18.5625
18.5625
18.4375
18.4375
18.5625
18.5
18.4375
18.5
18.5625
18.4375
18.3125
18.3125
18.4375
18.4375
18.4375
18.5625
18.5625
18.4375
18.4375
18.5625
18.5
18.375
18.375
18.4375
18.4375
18.375
18.375
18.375
18.5
18.5
18.4375
18.4375
18.5
18.4375
18.375
18.4375
18.4375
18.375
18.3125
18.375
18.5
18.4375
18.5
18.5
18.5
18.5
18.4375
18.375
18.375
18.4375
18.375
18.375
18.375
18.3125
18.3125
18.5
18.5625
18.4375
18.3125
18.4375
18.5625
18.4375
18.3125
18.3125
18.4375
18.4375
18.3125
18.3125
18.4375
18.5
18.5
18.5
18.4375
18.375
18.375
18.375
18.4375
18.375
18.3125
18.4375
18.4375
18.375
18.375
18.4375
18.4375
18.4375
18.5
18.5
18.375
18.25
18.3125
18.4375
18.4375
18.3125
18.25
18.4375
18.5
18.375
18.3125
18.4375
18.5
18.4375
18.3125
18.3125
18.375
18.375
18.3125
18.3125
18.375
18.4375
18.4375
18.4375
18.4375
18.4375
18.375
18.375
18.375
18.375
18.375
18.25
18.25
18.4375
18.5
18.375
18.3125
18.375
18.4375
18.5
18.4375
18.3125
18.3125
18.375
18.4375
18.25
18.1875
18.4375
18.4375
18.3125
18.375
18.5625
18.4375
18.3125
18.3125
18.375
18.3125
18.375
18.375
18.3125
18.375
18.4375
18.375
18.375
18.4375
18.4375
18.375
18.375
18.375
18.375
18.3125
18.3125
18.375
18.375
18.375
18.375
18.375
18.4375
18.5
18.375
18.25
18.3125
18.4375
18.375
18.25
18.3125
18.375
18.375
18.4375
18.5625
18.5625
18.25
18.125
18.4375
18.4375
18.1875
18.0625
18.3125
18.4375
18.3125
18.25
18.3125
18.5
18.4375
18.375
18.375
18.4375
18.375
18.3125
18.3125
18.3125
18.375
18.3125
18.25
18.375
18.4375
18.3125
18.25
18.4375
18.5
18.3125
18.1875
18.375
18.5
18.3125
18.25
18.3125
18.375
18.375
18.375
18.3125
18.3125
18.4375
18.375
18.25
18.3125
18.375
18.3125
18.25
18.375
18.375
18.25
18.1875
18.375
18.375
18.1875
18.25
18.375
18.375
18.25
18.25
18.3125
18.25
18.25
18.375
18.3125
18.25
18.25
18.375
18.3125
18.25
18.3125
18.3125
18.3125
18.3125
18.25
18.3125
18.4375
18.375
18.1875
18.125
18.3125
18.375
18.25
18.25
18.375
18.3125
18.3125
18.375
18.3125
18.25
18.25
18.3125
18.3125
18.375
18.25
18.1875
18.25
18.4375
18.4375
18.25
18.1875
18.375
18.375
18.25
18.1875
18.3125
18.25
18.25
18.3125
18.25
18.25
18.3125
18.375
18.3125
18.3125
18.3125
18.25
18.3125
18.25
18.25
18.25
18.3125
18.3125
18.25
18.1875
18.3125
18.3125
18.25
18.3125
18.375
18.25
18.1875
18.25
18.3125
18.25
18.1875
18.1875
18.3125
18.3125
18.25
18.3125
18.25
18.25
18.25
18.3125
18.3125
18.125
18.0625
18.25
18.4375
18.3125
18.1875
18.1875
18.3125
18.375
18.25
18.1875
18.1875
18.25
18.1875
18.1875
18.1875
18.3125
18.3125
18.25
18.3125
18.3125
18.25
18.25
18.3125
18.1875
18.125
18.1875
18.25
18.125
18.0625
18.1875
18.3125
18.25
18.25
18.25
18.25
18.25
18.25
18.25
18.1875
18.1875
18.25
18.1875
18.1875
18.3125
18.25
18.1875
18.25
18.375
18.3125
18.0625
18.125
18.25
18.25
18.1875
18.125
18.125
18.1875
18.3125
18.25
18.125
18.1875
18.25
18.25
18.1875
18.1875
18.1875
18.125
18.125
18.1875
18.25
18.1875
18.1875
18.25
18.3125
18.1875
18.1875
18.1875
18.25
18.1875
18.125
18.125
18.25
18.25
18.1875
18.1875
18.25
18.25
18.1875
18.125
18.25
18.25
18.125
18.125
18.1875
18.25
18.1875
18.125
18.1875
18.25
18.25
18.1875
18.1875
18.25
18.25
18.1875
18.1875
18.1875
18.1875
18.125
18.1875
18.25
18.1875
18.1875
18.25
18.25
18.1875
18.125
18.1875
18.125
18.125
18.125
18.1875
18.1875
18.1875
18.25
18.25
18.25
18.25
18.1875
18.1875
18.1875
18.25
18.1875
18.125
18.125
18.1875
18.25
18.1875
18.125
18.1875
18.25
18.1875
18.125
18.1875
18.125
18.125
18.1875
18.1875
18.125
18.125
18.1875
18.25
18.1875
18.25
18.1875
18.125
18.1875
18.25
18.1875
18.125
18.1875
18.25
18.125
18.0625
18.3125
18.3125
18.0625
18.0625
18.25
18.1875
18.125
18.125
18.1875
18.125
18.1875
18.25
18.0625
18.0
18.3125
18.375
18.1875
18.0625
18.3125
18.3125
18.125
18.0
18.25
18.3125
18.125
18.0625
18.1875
18.25
18.1875
18.0625
18.0625
18.1875
18.25
18.125
18.0625
18.1875
18.3125
18.125
18.0625
18.1875
18.1875
18.125
18.125
18.25
18.1875
18.1875
18.1875
18.125
18.125
18.1875
18.25
18.25
18.0625
18.0625
18.25
18.3125
18.1875
18.125
18.125
18.25
18.1875
18.125
18.125
18.125
18.1875
18.1875
18.125
18.125
18.1875
18.25
18.1875
18.125
18.125
18.1875
18.125
18.0
18.0
18.0625
18.25
18.25
18.125
18.0625
18.1875
18.3125
18.1875
18.125
18.1875
18.25
18.125
18.0625
18.125
18.25
18.125
18.0625
18.125
18.1875
18.1875
18.125
18.125
18.1875
18.3125
18.1875
18.0
18.0625
18.25
18.25
18.125
18.125
18.125
18.25
18.1875
18.125
18.125
18.1875
18.125
18.0625
18.125
18.1875
18.125
18.125
18.1875
18.25
18.0625
18.0625
18.25
18.25
18.125
18.125
18.1875
18.125
18.0625
18.125
18.125
18.125
18.1875
18.1875
18.125
18.125
18.1875
18.0625
18.0
18.1875
18.25
18.0625
18.0
18.1875
18.3125
18.125
18.0625
18.1875
18.25
18.125
18.125
18.125
18.125
18.125
18.1875
18.125
18.125
18.1875
18.1875
18.125
18.0625
18.125
18.125
18.0625
18.0625
18.125
18.1875
18.1875
18.1875
18.125
18.125
18.1875
18.1875
18.125
18.0
18.0625
18.1875
18.125
18.0
18.0
18.125
18.1875
18.125
18.125
18.1875
18.125
18.125
18.1875
18.1875
18.0625
18.0
18.125
18.25
18.125
18.0625
18.0625
18.125
18.1875
18.1875
18.125
18.0
18.0
18.1875
18.25
18.125
17.9375
18.125
18.25
18.125
18.0
18.125
18.25
18.125
18.0625
18.1875
18.1875
18.0625
18.0
18.0625
18.25
18.1875
18.0
17.9375
18.1875
18.25
18.0625
18.0
18.1875
18.1875
18.0
18.0
18.125
18.125
18.0625
18.125
18.1875
18.1875
18.0625
18.0
18.25
18.3125
18.125
17.9375
18.0625
18.1875
18.1875
18.125
18.0625
18.0625
18.125
18.25
18.125
18.125
18.125
18.125
18.125
18.125
18.0625
17.9375
18.0
18.1875
18.3125
18.125
18.0
18.125
18.25
18.125
18.0625
18.0625
18.125
18.0
18.0
18.1875
18.1875
18.0625
18.125
18.25
18.125
18.0625
18.125
18.25
18.1875
18.125
18.125
18.0625
18.0
18.0625
18.1875
18.0625
18.0625
18.125
18.125
18.0
18.0625
18.25
18.25
18.125
18.0
18.125
18.1875
18.0625
18.0
18.125
18.1875
18.125
18.0625
18.0625
18.0625
18.125
18.125
18.0
17.9375
18.125
18.1875
18.0625
18.0625
18.1875
18.1875
18.125
18.125
18.0625
18.0625
18.125
18.125
18.0
17.875
18.125
18.25
18.0
17.875
18.125
18.375
18.125
17.9375
18.0625
18.1875
18.125
18.0625
18.0625
18.0625
18.125
18.125
18.0625
18.0625
18.1875
18.1875
18.125
18.125
18.125
18.125
18.125
18.0625
18.0
18.0625
18.25
18.125
18.0
18.125
18.25
18.125
18.0625
18.125
18.125
18.0
18.0
18.0625
18.0625
18.0625
18.125
18.125
18.125
18.125
18.125
18.125
18.0625
18.0625
18.125
18.0625
18.0625
18.125
18.125
18.0625
18.0625
18.125
18.125
18.125
18.125
18.0
18.0
18.125
18.1875
18.0
18.0
18.125
18.125
17.9375
18.0
18.125
18.0625
18.125
18.1875
18.0625
18.0625
18.0625
18.0625
18.125
18.125
18.0625
18.0
18.0625
18.1875
18.0625
18.0
18.0625
18.1875
18.125
18.0
18.0
18.0625
18.125
18.0625
17.9375
17.9375
18.1875
18.25
18.0625
17.9375
18.0625
18.1875
18.125
17.9375
17.9375
18.0625
18.125
18.125
18.0
17.9375
18.125
18.25
18.1875
17.9375
17.9375
18.125
18.125
17.9375
17.9375
18.0625
18.125
18.125
18.125
18.0625
18.0625
18.125
18.125
18.0
18.0
18.125
18.0625
17.9375
17.9375
18.0625
18.125
18.0625
18.0
18.0625
18.1875
18.125
18.0625
18.0625
18.0625
18.0625
18.0625
18.0
18.0
18.0
18.0625
18.0625
18.0625
18.125
18.1875
18.0
17.9375
18.0
18.125
18.0625
17.9375
18.0
18.1875
18.125
18.0
18.0
18.0625
18.125
18.125
18.0625
18.0
18.0625
18.0625
18.0
17.9375
18.0
18.0625
18.0625
18.0625
18.0625
18.125
18.0625
18.0625
18.125
18.0625
18.0625
18.0625
18.0
18.0
18.0
18.0625
17.9375
17.875
18.0625
18.1875
18.0
17.9375
18.0625
18.1875
18.0625
18.0
18.0
18.0625
18.0625
18.0
17.9375
18.0625
18.1875
18.0625
18.0625
18.0625
18.125
18.0625
18.0
18.0625
18.0
17.9375
18.0
18.0625
18.0
17.9375
18.0
18.125
18.125
18.0625
18.0625
18.0625
18.0625
18.0625
18.0
18.0
18.0
18.0625
18.0625
18.0
18.0
18.0625
18.0625
18.0
18.0625
18.0
17.9375
17.9375
18.1875
18.4375
18.5625
18.5625
18.75
18.875
18.9375
18.9375
19.0625
19.1875
19.3125
19.375
19.375
19.4375
19.5625
19.5
19.5
19.625
19.6875
19.625
19.5625
19.625
19.75
19.6875
19.6875
19.6875
19.6875
19.6875
19.6875
19.625
19.625
19.625
19.6875
19.625
19.625
19.625
19.625
19.5625
19.5625
19.5625
19.5625
19.5625
19.5625
19.5625
19.5625
19.625
19.625
19.5625
19.4375
19.4375
19.5
19.5625
19.4375
19.375
19.375
19.4375
19.5
19.4375
19.375
19.375
19.5
19.5
19.3125
19.25
19.4375
19.4375
19.3125
19.25
19.3125
19.3125
19.3125
19.25
19.1875
19.25
19.4375
19.375
19.1875
19.1875
19.25
19.25
19.1875
19.1875
19.25
19.3125
19.1875
19.125
19.1875
19.25
19.25
19.125
19.0625
19.1875
19.25
19.125
19.0625
19.0625
19.25
19.25
19.125
19.0625
19.125
19.125
19.125
19.125
19.1875
19.0625
19.0
19.0625
19.1875
19.0625
19.0
19.0
19.125
19.1875
19.0625
19.0625
19.0625
19.0
18.9375
19.0
19.125
19.0
18.875
18.9375
19.125
19.0625
18.9375
18.9375
19.0
19.0625
19.0625
18.9375
18.875
18.9375
19.0
19.0
19.0
19.0
18.9375
18.875
19.0
19.125
19.0
18.8125
18.8125
18.9375
18.9375
18.875
18.8125
18.875
18.9375
19.0625
18.9375
18.6875
18.875
19.125
19.125
19.1875
19.25
19.25
19.3125
19.4375
19.5625
19.5625
19.5
19.5625
19.625
19.6875
19.625
19.625
19.625
19.6875
19.6875
19.5625
19.5625
19.625
19.75
19.6875
19.5625
19.5625
19.6875
19.6875
19.625
19.5625
19.5625
19.5625
19.5
19.4375
19.375
19.5
19.5625
19.625
19.5625
19.5
19.5625
19.5625
19.5
19.5
19.4375
19.4375
19.4375
19.375
19.3125
19.4375
19.4375
19.3125
19.25
19.4375
19.5625
19.375
19.25
19.3125
19.4375
19.4375
19.25
19.25
19.25
19.375
19.3125
19.3125
19.3125
19.3125
19.3125
19.3125
19.3125
19.25
19.125
19.1875
19.25
19.25
19.1875
19.25
19.25
19.125
19.125
19.1875
19.25
19.125
19.0625
19.125
19.1875
19.0625
19.0625
19.125
19.25
19.125
19.0625
19.0625
19.1875
19.1875
19.0625
19.0
19.0625
19.125
19.0625
19.0
19.0
19.0625
19.125
19.0625
19.0625
19.0625
19.0625
19.0
19.0
19.0625
19.0625
18.9375
18.9375
19.0
19.0625
19.0625
18.9375
18.875
19.0
19.125
19.0
18.8125
18.9375
19.1875
19.0
18.6875
18.8125
19.1875
19.125
18.875
18.8125
19.0
19.0625
18.8125
18.625
18.875
19.1875
19.0
18.6875
18.75
19.0625
19.0
18.75
18.75
18.9375
19.0
18.875
18.8125
18.875
18.875
18.9375
19.0
18.875
18.75
18.8125
19.0
19.0
18.75
18.75
18.9375
18.875
18.6875
18.75
18.9375
18.9375
18.8125
18.6875
18.75
19.0
19.0625
18.6875
18.5625
19.0
19.125
18.625
18.4375
18.9375
19.125
18.75
18.625
18.8125
18.8125
18.75
18.75
18.8125
18.75
18.75
18.8125
18.6875
18.6875
18.75
18.8125
18.75
18.8125
18.875
18.75
18.75
18.875
18.875
18.625
18.5
18.75
18.875
18.75
18.6875
18.8125
18.875
18.8125
18.6875
18.625
18.6875
18.875
18.875
18.5625
18.4375
18.75
18.875
18.6875
18.625
18.8125
18.875
18.6875
18.625
18.6875
18.8125
18.75
18.6875
18.625
18.625
18.6875
18.6875
18.5625
18.6875
18.875
18.8125
18.6875
18.75
18.8125
18.6875
18.625
18.6875
18.625
18.625
18.625
18.6875
18.6875
18.6875
18.75
18.6875
18.5625
18.5625
18.8125
18.8125
18.625
18.5
18.5625
18.6875
18.75
18.6875
18.6875
18.6875
18.6875
18.75
18.6875
18.5
18.625
18.8125
18.6875
18.5
18.5625
18.625
18.5
18.625
18.75
18.75
18.625
18.625
18.625
18.6875
18.625
18.5
18.5
18.625
18.625
18.5
18.5
18.5
18.75
18.8125
18.625
18.4375
18.5625
18.75
18.6875
18.5
18.5
18.5625
18.5625
18.5625
18.625
18.4375
18.4375
18.75
18.75
18.5625
18.5
18.625
18.6875
18.625
18.625
18.5
18.5
18.625
18.625
18.5
18.5
18.625
18.625
18.6875
18.625
18.4375
18.5
18.6875
18.6875
18.375
18.375
18.5625
18.625
18.5625
18.4375
18.4375
18.5625
18.6875
18.625
18.3125
18.4375
18.6875
18.625
18.375
18.4375
18.5625
18.625
18.5625
18.5
18.5
18.5625
18.625
18.5
18.3125
18.4375
18.6875
18.6875
18.5625
19.0
19.5625
19.5
19.375
19.5
19.5
19.5
19.6875
19.625
19.5
19.5625
19.6875
19.6875
19.6875
19.625
19.625
19.625
19.75
19.9375
19.9375
19.6875
19.375
19.375
19.75
19.625
19.3125
19.5
20.125
20.5
19.9375
19.125
18.75
18.9375
19.3125
19.3125
19.5625
20.1875
20.1875
20.25
21.1875
19.3125
17.0
17.8125
18.9375
18.8125
18.0625
17.5
19.5
23.125
23.1875
20.125
19.375
19.6875
17.8125
15.5625
15.875
17.9375
19.5625
20.5625
21.6875
20.5625
18.75
19.875
20.4375
18.0625
17.1875
18.8125
19.3125
19.3125
20.1875
20.5625
19.875
19.375
19.875
20.5
19.8125
18.8125
18.6875
18.8125
18.75
18.3125
17.9375
18.5625
19.4375
19.75
19.8125
20.25
20.375
19.75
19.3125
19.5
19.625
19.5625
19.75
19.5
18.8125
18.625
19.0625
19.25
19.1875
19.4375
20.0625
20.25
19.8125
19.4375
19.25
18.5
17.875
18.125
18.6875
18.9375
18.8125
18.875
19.25
19.6875
19.8125
19.5625
19.25
19.0625
19.25
19.5625
19.5
19.1875
18.9375
18.9375
19.125
19.25
19.25
19.25
19.25
18.9375
18.6875
18.6875
19.0
19.25
19.125
18.8125
18.9375
19.5
19.5625
18.875
18.5
18.9375
19.25
19.0625
18.875
18.875
18.875
19.125
19.5
19.5
19.3125
19.1875
19.1875
18.6875
18.1875
18.5
19.1875
19.25
18.75
18.3125
18.5
19.0
19.125
18.6875
18.25
18.5
19.0
19.125
18.9375
18.875
18.9375
18.75
18.6875
18.8125
18.8125
18.5625
18.625
19.1875
19.3125
18.875
18.625
18.875
18.9375
18.625
18.5
18.5
18.0
17.8125
18.8125
19.1875
18.6875
19.75
20.5625
19.5
18.5625
18.0
19.1875
21.0625
20.8125
19.375
18.6875
19.0625
19.625
19.625
19.0
16.875
16.0625
20.125
21.6875
17.1875
14.875
18.125
21.0625
20.0
18.5625
19.5625
20.3125
19.375
19.25
19.875
18.9375
17.4375
18.0625
19.25
19.0
18.375
18.75
19.1875
19.0
19.0625
18.8125
18.375
18.4375
18.875
18.75
18.125
17.5
17.5625
18.375
19.1875
19.25
18.875
18.625
18.8125
19.3125
19.1875
18.5625
18.6875
19.4375
19.5625
18.9375
18.8125
19.375
19.75
19.5625
19.1875
19.0
18.875
18.75
18.625
18.5625
18.9375
19.375
19.375
19.25
19.3125
19.1875
18.8125
18.75
18.9375
19.0
19.0
18.9375
18.625
18.4375
18.5625
18.5
18.3125
18.6875
18.9375
18.6875
18.375
18.3125
18.1875
18.125
18.125
18.4375
18.6875
18.75
18.875
19.25
19.1875
18.75
18.875
19.4375
19.4375
18.75
18.625
19.25
19.1875
18.4375
18.3125
18.6875
18.375
17.5625
17.8125
19.125
19.6875
19.125
18.5
18.25
18.25
18.5
18.875
18.875
18.75
18.5
18.1875
18.375
19.1875
19.125
18.5625
18.8125
19.0625
18.9375
18.8125
18.8125
18.875
18.625
18.125
17.875
18.1875
18.8125
19.125
18.875
18.6875
18.75
18.9375
19.0625
18.9375
18.8125
18.8125
19.0
18.875
18.5625
18.5625
18.6875
18.5625
18.4375
18.5625
18.875
18.75
18.4375
18.4375
18.8125
18.75
18.375
18.375
18.75
18.9375
18.875
18.9375
19.0625
19.0
18.8125
18.75
18.6875
18.5625
18.5625
18.625
18.6875
18.75
18.5625
18.25
18.1875
18.5625
19.0
19.0625
18.6875
18.5625
18.625
18.375
18.3125
18.5
18.6875
18.6875
18.4375
18.5
19.125
19.3125
18.6875
18.1875
18.0
18.0
18.125
18.6875
19.3125
19.1875
18.6875
18.6875
19.1875
19.6875
19.625
19.125
18.875
19.0
18.9375
18.5625
18.4375
19.0
19.625
19.625
19.4375
19.4375
19.1875
19.3125
20.375
20.5
18.3125
16.0625
16.0
17.0
17.9375
19.0625
19.9375
18.9375
17.0
16.625
17.6875
17.9375
17.375
17.8125
18.75
18.8125
18.375
18.3125
18.625
18.9375
18.8125
18.5
18.4375
18.1875
17.75
18.0625
18.875
19.375
19.625
19.4375
18.75
18.0
17.75
18.25
18.625
18.0625
17.625
18.0
18.4375
18.375
18.4375
18.75
18.75
18.4375
18.5
18.75
18.6875
18.6875
19.125
19.375
19.125
18.9375
19.0
19.0
18.75
18.6875
18.9375
19.1875
19.25
19.1875
19.0
19.0
19.0
18.75
18.3125
18.375
18.5625
18.3125
18.125
18.25
18.25
18.0625
18.125
18.4375
18.5
18.375
18.375
18.3125
18.25
18.25
18.3125
18.25
18.1875
18.375
18.625
18.5
18.25
18.25
18.375
18.375
18.3125
18.25
18.1875
18.125
18.125
18.25
18.375
18.4375
18.5
18.5
18.5
18.375
18.25
18.1875
18.3125
18.625
18.6875
18.4375
18.4375
18.5
18.5625
18.5
18.5625
18.5625
18.4375
18.4375
18.4375
18.5
18.5
18.5
18.4375
18.375
18.4375
18.5
18.375
18.3125
18.5625
18.75
18.625
18.4375
18.4375
18.4375
18.25
18.1875
18.3125
18.4375
18.4375
18.25
18.125
18.3125
18.5
18.375
18.3125
18.3125
18.3125
18.1875
18.125
18.125
18.1875
18.25
18.25
18.3125
18.375
18.375
18.3125
18.25
18.25
18.375
18.375
18.25
18.3125
18.4375
18.375
18.3125
18.375
18.5625
18.5625
18.4375
18.25
18.25
18.5
18.625
18.4375
18.1875
18.1875
18.3125
18.375
18.375
18.3125
18.3125
18.3125
18.375
18.375
18.375
18.25
18.1875
18.25
18.4375
18.4375
18.3125
18.375
18.4375
18.4375
18.5
18.5625
18.5625
18.6875
18.8125
18.625
18.3125
18.25
18.4375
18.5
18.4375
18.5
18.75
18.75
18.5625
18.625
18.875
18.8125
18.4375
18.3125
18.25
18.0
17.75
18.0625
18.5625
18.625
18.375
18.25
18.375
18.5625
18.5625
18.0625
17.5625
17.8125
18.5
18.5
18.1875
18.3125
18.5625
18.5
18.25
18.375
18.5
18.375
18.3125
18.375
18.5
17.9375
17.625
18.625
19.1875
18.4375
18.0
18.4375
18.6875
18.4375
18.5
18.8125
18.625
18.25
18.25
18.4375
18.4375
18.0625
17.6875
17.875
18.5
18.6875
18.1875
17.875
18.1875
18.4375
18.4375
18.5625
18.8125
18.6875
18.375
18.5625
19.0625
19.0
18.4375
18.1875
18.4375
18.6875
18.5
18.25
18.4375
18.5625
18.5
18.5
18.6875
18.6875
18.375
18.25
18.25
18.25
18.375
18.625
18.75
18.5
18.3125
18.1875
18.125
18.0625
18.125
18.375
18.5
18.3125
18.375
18.6875
18.75
18.625
18.625
18.875
19.0
19.0
18.5625
18.375
18.5
18.4375
18.1875
18.125
18.25
18.125
18.0625
18.1875
18.375
18.3125
18.375
18.5
18.25
17.875
17.75
18.0
18.25
18.6875
18.9375
18.8125
18.6875
18.75
18.9375
18.8125
18.375
18.25
18.375
18.3125
18.3125
18.4375
18.125
17.75
18.0
18.4375
18.625
18.75
18.9375
18.9375
18.5
18.125
18.125
18.125
18.0625
18.1875
18.25
18.25
18.25
18.0625
18.0625
18.4375
18.8125
18.8125
18.625
18.4375
18.4375
18.5625
18.5625
18.5
18.375
18.3125
18.375
18.4375
18.625
18.75
18.6875
18.4375
18.25
18.1875
18.0
17.875
18.0
18.25
18.375
18.4375
18.4375
18.5625
18.75
18.75
18.625
18.5
18.5625
18.5
18.3125
18.0
18.125
18.25
18.375
18.4375
18.625
18.75
18.625
18.375
18.3125
18.3125
17.9375
17.75
18.0625
18.375
18.3125
18.25
18.1875
18.1875
18.375
18.25
18.25
18.3125
18.375
18.375
18.5
18.4375
18.375
18.25
18.125
18.25
18.5
18.5625
18.4375
18.375
18.5
18.5
18.25
18.0625
18.0625
18.1875
18.1875
18.125
18.1875
18.25
18.25
18.4375
18.5625
18.4375
18.3125
18.25
18.3125
18.1875
18.0
18.125
18.25
18.3125
18.25
18.25
18.3125
18.375
18.3125
18.25
18.25
18.3125
18.25
18.125
18.1875
18.375
18.25
18.25
18.375
18.4375
18.375
18.3125
18.375
18.25
18.1875
18.25
18.125
18.0625
18.1875
18.375
18.375
18.1875
18.1875
18.375
18.5
18.3125
18.3125
18.375
18.25
18.0625
18.0625
18.125
18.1875
18.3125
18.3125
18.25
18.3125
18.5
18.375
18.25
18.3125
18.375
18.25
18.1875
18.1875
18.125
18.125
18.1875
18.25
18.3125
18.25
18.25
18.25
18.3125
18.1875
18.0625
18.125
18.25
18.1875
18.125
18.25
18.375
18.25
18.3125
18.375
18.25
18.1875
18.3125
18.3125
18.1875
18.0625
18.125
18.25
18.25
18.3125
18.25
18.1875
18.1875
18.3125
18.3125
18.1875
18.1875
18.1875
18.125
18.125
18.125
18.1875
18.1875
18.25
18.25
18.3125
18.25
18.125
18.1875
18.3125
18.25
18.125
18.125
18.25
18.1875
18.125
18.125
18.1875
18.25
18.125
18.0625
18.1875
18.3125
18.1875
18.125
18.3125
18.3125
18.0625
18.0625
18.25
18.25
18.1875
18.25
18.3125
18.25
18.25
18.1875
18.0625
18.0625
18.1875
18.125
18.0625
18.0625
18.1875
18.25
18.25
18.25
18.0625
18.0
18.1875
18.1875
18.0
17.9375
18.125
18.1875
18.125
18.1875
18.25
18.1875
18.1875
18.3125
18.25
18.1875
18.125
18.0625
18.0625
18.1875
18.1875
18.0
18.0
18.25
18.25
18.0
17.9375
18.1875
18.3125
18.25
18.125
18.125
18.1875
18.25
18.1875
18.125
18.125
18.1875
18.25
18.1875
18.25
18.125
18.0625
18.125
18.1875
18.0625
17.9375
18.1875
18.3125
18.125
18.0
18.125
18.3125
18.1875
18.125
18.1875
18.1875
18.125
18.125
18.1875
18.125
18.0
18.0625
18.25
18.125
18.0
18.125
18.25
18.125
18.0625
18.125
18.1875
18.125
18.125
18.0625
18.125
18.125
18.125
18.125
18.1875
18.125
18.0625
18.0625
18.0625
18.0625
18.0
18.0
18.125
18.1875
18.1875
18.125
18.125
18.1875
18.25
18.1875
18.0625
18.0625
18.125
18.1875
18.0625
18.0625
18.125
18.1875
18.125
18.125
18.1875
18.25
18.1875
18.125
18.0625
18.0625
18.1875
18.25
18.0625
18.0625
18.25
18.25
18.0625
18.0625
18.125
18.25
18.1875
18.0625
17.9375
18.0
18.1875
18.25
18.0625
18.0625
18.25
18.3125
18.125
18.0
18.1875
18.25
18.0625
18.0
18.125
18.1875
18.0
17.9375
18.125
18.1875
18.0625
18.0
18.125
18.1875
18.0625
18.0625
18.125
18.0625
17.875
17.875
18.0
18.0
18.0
18.1875
18.3125
18.3125
18.375
18.5625
18.5
18.375
18.25
18.1875
18.125
18.125
18.0625
17.8125
17.875
18.0
18.0
17.9375
18.0625
18.125
18.0
17.75
17.875
18.1875
18.25
18.125
17.875
17.75
18.1875
18.5625
18.375
17.9375
17.875
18.0625
18.1875
18.125
17.75
17.6875
18.0
18.1875
18.5
19.125
18.4375
16.9375
17.5625
19.0
18.875
18.4375
18.6875
18.5625
18.125
18.3125
18.5625
18.1875
18.3125
18.4375
18.25
18.5625
18.6875
19.0625
19.3125
19.0
18.625
17.3125
15.8125
16.5625
17.9375
17.5625
17.6875
19.0
19.125
18.0
17.625
17.9375
17.8125
17.1875
17.25
17.5
17.5
17.6875
17.5625
17.25
17.375
17.75
18.125
18.5
18.875
19.0
18.75
18.5625
18.5625
18.375
17.9375
17.75
17.6875
17.4375
17.3125
17.625
18.1875
18.8125
19.125
19.125
19.0625
18.9375
18.3125
17.1875
16.75
17.125
17.9375
18.3125
18.4375
18.8125
19.0
18.6875
18.5625
18.875
18.875
18.625
18.4375
18.4375
18.25
17.9375
17.9375
18.0
17.9375
17.9375
18.0
18.0
18.1875
18.375
18.5
18.4375
18.375
18.4375
18.4375
18.375
18.25
18.0625
17.9375
17.6875
17.125
16.9375
17.5625
18.375
18.4375
18.125
17.9375
17.9375
18.0625
18.25
18.375
18.1875
17.6875
17.5
17.75
18.0625
18.1875
18.1875
18.125
18.125
18.25
18.3125
18.25
18.0
17.9375
17.8125
17.75
17.6875
17.6875
17.625
17.8125
17.9375
18.0625
18.125
18.0625
18.1875
18.375
18.4375
18.4375
18.5
18.375
18.25
18.0
17.9375
18.1875
18.3125
18.125
17.9375
18.0
17.75
17.0625
17.25
18.5
19.3125
18.9375
18.125
17.8125
17.625
17.5
17.5625
17.75
17.9375
18.1875
18.5
18.4375
18.375
18.5625
18.625
18.5
18.5
18.3125
17.75
17.375
17.625
17.9375
17.875
17.75
18.0625
18.375
18.3125
18.0625
18.0625
18.4375
18.5625
18.1875
18.0
18.3125
18.3125
17.6875
17.6875
18.3125
18.125
17.625
18.125
18.4375
17.6875
17.5625
18.25
18.1875
17.8125
18.3125
18.3125
17.6875
17.75
18.25
18.3125
18.4375
18.625
17.875
17.4375
18.0625
18.375
18.0625
18.0625
18.125
17.625
17.375
18.0625
18.5
18.25
18.0
18.0625
18.125
18.0
17.9375
17.9375
18.0625
18.4375
18.625
18.375
17.6875
17.0625
17.4375
18.0625
18.375
18.5625
18.5625
18.375
18.0625
17.8125
17.8125
17.875
18.0
18.125
18.125
17.8125
17.8125
18.125
18.375
18.4375
18.625
18.625
18.0625
17.625
17.6875
17.9375
17.9375
17.875
18.0
18.1875
18.25
18.375
18.5
18.375
18.25
18.4375
18.4375
18.0625
17.6875
17.6875
17.875
17.9375
18.0625
18.0
17.8125
17.875
18.0
17.8125
17.375
17.25
17.9375
18.5625
18.5625
18.4375
18.375
18.1875
17.9375
17.6875
17.9375
18.25
18.1875
18.125
18.3125
18.5625
18.625
18.4375
18.3125
18.625
18.875
18.8125
18.4375
17.75
16.8125
16.0
16.375
17.75
19.0
19.3125
19.125
18.8125
18.3125
18.0
18.0625
18.0625
17.8125
17.5
17.625
17.9375
18.125
18.25
18.375
18.5
18.5
18.5625
18.3125
17.9375
17.9375
18.25
18.25
17.9375
17.8125
18.0
18.0
17.8125
17.6875
17.6875
17.8125
17.9375
17.9375
17.9375
17.875
17.875
17.875
17.8125
17.75
17.9375
18.0625
17.9375
17.875
17.9375
17.875
17.6875
17.8125
17.875
18.0625
18.625
19.0
18.25
17.5625
17.875
18.0
17.5625
17.6875
18.375
18.4375
17.875
17.625
17.8125
18.0
18.0
17.75
17.625
17.875
18.1875
18.0
17.5625
17.375
17.625
17.9375
18.125
18.1875
18.125
18.0625
17.9375
17.9375
17.9375
18.0
17.9375
18.125
18.25
18.1875
18.25
18.375
18.3125
18.0
17.5625
17.5
17.8125
17.9375
17.8125
17.9375
18.375
18.375
18.0625
18.0625
18.1875
17.9375
17.875
18.25
18.375
18.1875
18.3125
18.4375
18.0625
17.75
18.125
18.3125
18.125
18.1875
18.5625
18.625
18.1875
18.0625
18.0625
18.0
17.875
17.875
17.9375
18.0
17.9375
17.9375
18.125
18.375
18.4375
18.1875
18.0
18.0625
18.1875
18.125
18.1875
18.3125
17.9375
17.375
17.6875
18.25
18.25
18.1875
18.375
18.4375
18.0625
17.75
17.625
17.8125
18.125
18.1875
17.8125
17.6875
18.0625
18.3125
17.875
17.4375
17.6875
18.0
18.0
18.0
18.125
18.25
18.375
18.3125
18.3125
18.4375
18.5625
18.6875
18.6875
18.75
19.0
19.25
19.3125
19.25
19.1875
19.25
19.4375
19.5625
19.6875
19.625
19.5
19.625
19.9375
19.9375
19.75
19.5625
19.5
19.5625
19.875
20.0625
20.0625
20.4375
20.9375
20.3125
18.4375
18.4375
20.375
20.75
19.3125
18.5625
19.4375
20.125
20.0625
20.375
21.0625
20.5
18.5
17.8125
19.0
20.0625
19.4375
18.4375
19.0
19.8125
19.25
19.0
20.0625
20.75
20.1875
19.6875
19.75
19.875
19.5625
19.0625
18.9375
19.1875
19.5
19.6875
19.3125
18.6875
18.4375
18.625
19.125
19.625
20.0625
19.9375
19.375
19.0
19.1875
19.4375
19.4375
19.375
19.1875
19.375
19.9375
20.125
19.875
19.9375
20.0
19.5
18.8125
18.6875
18.75
18.6875
19.0625
19.875
20.0625
19.625
19.5625
19.75
19.5
19.0625
18.875
18.75
18.625
18.75
19.0
19.1875
19.3125
19.25
19.1875
19.3125
19.5625
19.5625
19.375
19.25
19.0
18.5625
18.625
19.125
19.4375
19.375
19.3125
19.4375
19.4375
19.25
19.0625
18.9375
18.875
18.8125
18.6875
18.6875
18.9375
19.0
18.8125
18.75
19.0625
19.1875
18.875
18.75
18.9375
18.875
18.4375
18.3125
18.5625
18.875
19.0
19.0
19.0625
19.0
18.9375
19.0
19.125
19.0
18.9375
19.0
18.8125
18.625
18.625
18.625
18.8125
19.125
19.3125
19.1875
18.9375
18.75
18.75
18.8125
18.75
18.5625
18.5
18.625
18.75
18.8125
18.8125
18.9375
18.9375
19.0
19.1875
19.3125
19.25
19.0625
19.0625
18.8125
18.3125
18.1875
18.5625
19.25
19.5625
19.25
18.8125
18.5625
18.25
18.3125
18.9375
19.1875
19.0
19.125
19.3125
18.9375
18.5625
18.5
18.375
18.4375
18.75
19.0625
19.1875
19.4375
19.4375
18.9375
18.6875
18.8125
18.8125
18.5625
18.75
18.875
18.75
18.625
18.8125
19.125
19.25
19.0625
18.875
18.875
18.5625
18.25
18.3125
18.25
18.0625
18.0625
18.125
18.3125
18.5625
19.125
19.375
19.1875
19.4375
20.3125
20.4375
19.4375
18.125
17.1875
16.875
17.625
18.5625
19.0
19.1875
19.3125
19.25
19.125
19.1875
19.1875
18.875
18.5
18.375
18.5625
18.5625
18.5
18.625
18.875
18.875
18.8125
18.8125
18.375
18.625
19.75
20.0625
19.125
18.0625
17.8125
18.0625
18.1875
18.375
18.9375
19.5625
19.75
19.9375
20.6875
21.0625
20.5625
19.625
18.5
17.5
17.25
18.0625
19.375
20.1875
20.5625
20.4375
20.0
19.9375
20.3125
20.4375
20.125
19.8125
19.5625
19.25
18.6875
18.375
18.6875
19.3125
20.0
20.4375
20.5625
20.3125
19.75
19.375
19.625
20.0625
19.9375
19.5625
19.5
19.5
19.0625
18.9375
19.5
19.9375
19.9375
19.8125
19.8125
19.75
19.5625
19.5625
19.4375
19.3125
19.375
19.4375
19.1875
18.9375
19.1875
19.4375
19.4375
19.4375
19.5
19.3125
19.3125
19.5
19.5
19.3125
19.25
19.375
19.3125
19.125
18.875
18.875
19.0625
19.3125
19.4375
19.3125
19.3125
19.3125
19.3125
19.375
19.6875
20.0
19.6875
19.0
18.5
18.8125
19.1875
19.3125
19.5625
19.6875
19.4375
18.75
18.5
18.8125
19.1875
19.4375
19.5625
19.5625
19.4375
19.25
19.25
19.375
19.25
19.0
18.8125
18.875
19.0
18.9375
18.9375
19.0
19.0625
19.125
19.1875
19.25
19.25
19.125
19.0625
19.0625
19.0625
19.0625
19.1875
19.25
19.1875
19.3125
19.5
19.5
19.375
19.1875
19.0625
18.6875
18.375
18.375
18.875
19.3125
19.25
18.8125
18.6875
19.3125
19.375
18.875
18.5625
18.625
18.4375
18.0
18.125
18.8125
19.4375
19.4375
19.3125
19.375
19.25
18.6875
18.3125
18.3125
18.3125
18.3125
18.5625
18.75
18.8125
19.0625
19.25
19.0
18.9375
19.25
19.25
18.8125
18.4375
18.1875
18.1875
18.375
18.5
18.5625
18.4375
18.4375
18.9375
19.4375
19.125
18.5
18.4375
18.8125
19.0
18.6875
18.3125
18.4375
18.875
19.125
19.1875
18.8125
18.25
18.0625
18.4375
18.9375
19.25
19.1875
18.9375
19.0
18.875
18.625
18.5625
18.8125
18.9375
18.8125
18.625
18.75
18.875
18.9375
18.9375
18.9375
18.9375
18.8125
18.6875
18.625
18.625
18.8125
18.9375
19.0
18.875
18.875
18.9375
19.125
19.125
19.0625
18.8125
18.4375
18.1875
18.25
18.375
18.5
18.625
18.875
19.1875
19.4375
19.5
19.5
19.4375
19.125
18.6875
18.5
18.375
18.125
18.0625
18.25
18.5
18.6875
18.625
18.75
19.0625
19.1875
19.0625
18.9375
18.75
18.5625
18.5
18.4375
18.4375
18.5625
18.6875
18.8125
18.9375
19.0625
19.1875
19.1875
19.125
19.0625
18.875
18.25
17.75
18.25
19.0625
18.875
18.5
18.875
19.25
18.875
18.4375
18.75
19.3125
19.1875
18.75
18.6875
18.625
18.75
18.875
18.5
18.3125
18.9375
19.0
18.4375
18.5625
18.875
18.6875
18.75
18.75
18.1875
18.1875
19.0
19.25
18.5625
18.5625
19.5
19.5
18.8125
18.8125
19.125
18.875
18.5
18.75
19.0
18.4375
17.875
18.5
19.1875
19.0625
18.8125
18.9375
19.375
19.3125
18.8125
18.5
18.5
18.25
17.875
18.1875
18.9375
19.5
19.375
19.0625
19.125
19.25
18.8125
18.4375
18.5
18.5625
18.5625
19.0
19.375
19.0625
18.9375
18.9375
18.9375
19.0
19.0625
18.6875
18.3125
18.5
18.75
18.875
19.1875
19.5625
19.25
18.75
18.9375
18.875
18.375
18.4375
18.9375
19.125
19.0625
19.125
18.875
18.75
18.75
18.6875
18.75
18.5625
18.4375
18.625
18.75
18.625
18.5
18.5625
18.6875
19.0
19.0625
18.8125
18.8125
19.125
19.0625
18.6875
18.625
18.875
18.9375
18.75
18.625
18.625
18.5625
18.5625
18.5625
18.625
18.75
18.9375
18.875
18.5625
18.75
19.0
18.6875
18.3125
18.25
18.5625
18.625
18.4375
18.5625
18.875
19.0
18.8125
18.6875
18.75
18.875
18.75
18.5625
18.6875
18.75
18.5625
18.375
18.625
18.9375
18.75
18.4375
18.625
18.9375
18.875
18.625
18.4375
18.3125
18.1875
18.125
18.1875
18.5
18.75
18.75
19.0625
19.375
19.125
19.0
19.0
18.625
18.3125
18.0625
17.8125
17.75
18.0625
18.625
19.0625
19.0625
18.875
18.5625
18.5
18.625
18.5
18.0625
18.0625
18.625
19.0
18.875
18.875
19.125
19.0625
18.875
18.9375
18.75
18.3125
18.1875
18.3125
18.125
17.9375
18.3125
18.1875
18.3125
19.125
19.0625
18.1875
18.0625
18.5625
18.8125
18.75
18.625
18.375
18.5
18.75
18.75
18.5
18.1875
18.0625
18.25
18.75
18.9375
18.9375
19.25
19.25
19.0625
18.625
18.0625
18.1875
18.4375
18.0
17.4375
17.5625
18.3125
18.9375
18.875
18.9375
19.25
19.375
18.8125
18.3125
18.1875
18.3125
18.3125
18.4375
18.75
18.8125
18.75
19.0
19.25
19.0
18.625
18.25
18.0
17.8125
17.6875
18.0625
18.6875
19.0
18.75
18.5
18.5625
18.6875
18.4375
18.1875
18.3125
18.5
18.5
18.5625
19.0
18.8125
18.5
18.5625
18.4375
18.1875
18.1875
18.375
18.375
18.3125
18.6875
19.0
18.5625
18.1875
18.6875
19.125
18.5
18.1875
18.5
18.5
18.375
18.5
18.625
18.625
18.625
18.6875
18.5625
18.5
18.5625
18.625
18.5
18.3125
18.5625
18.8125
18.75
18.6875
18.625
18.5
18.375
18.25
18.25
18.5
18.5
18.3125
18.3125
18.5
18.5
18.3125
18.375
18.6875
18.8125
18.6875
18.5625
18.5
18.375
18.125
18.0625
18.3125
18.5625
18.5
18.4375
18.4375
18.6875
18.75
18.4375
18.125
18.3125
18.4375
18.3125
18.3125
18.5
18.625
18.4375
18.375
18.5625
18.4375
18.625
18.8125
18.5
18.25
18.375
18.625
18.625
18.5
18.4375
18.4375
18.625
18.6875
18.4375
18.25
18.4375
18.625
18.5
18.5625
18.6875
18.5
18.3125
18.4375
18.4375
18.4375
18.5625
18.625
18.375
18.125
18.375
18.5625
18.5
18.3125
18.375
18.4375
18.3125
18.3125
18.4375
18.75
19.0
18.75
18.3125
18.25
18.4375
18.625
18.5
18.4375
18.4375
18.5625
18.625
18.625
18.5625
18.375
18.25
18.4375
18.5
18.5625
18.5
18.375
18.4375
18.5625
18.4375
18.375
18.3125
18.4375
18.8125
19.125
18.8125
18.375
18.25
18.3125
18.25
18.0625
18.0625
18.1875
18.125
18.0625
18.4375
18.75
18.8125
19.0625
19.125
18.5625
18.1875
18.25
18.125
17.9375
18.25
18.5
18.3125
18.375
18.625
18.4375
18.375
18.5625
18.75
18.625
18.3125
18.125
18.1875
18.3125
18.4375
18.3125
18.25
18.375
18.5625
18.625
18.5625
18.6875
18.75
18.5625
18.3125
18.5
18.5625
18.0625
18.0625
18.625
18.625
18.3125
18.375
18.8125
18.8125
18.3125
17.75
17.5
17.9375
18.5625
18.75
18.625
18.5625
18.4375
18.1875
17.9375
18.125
18.3125
18.375
18.625
18.875
18.625
18.375
18.9375
19.3125
18.6875
18.125
18.125
18.0
17.5
17.5625
18.0625
18.5
18.8125
18.9375
18.75
18.5
18.4375
18.3125
18.125
17.9375
17.9375
18.0
18.0625
18.0
18.125
18.625
18.875
18.8125
18.8125
18.875
18.75
18.375
18.125
18.0
17.9375
17.9375
18.125
18.375
18.625
18.4375
18.375
18.625
18.75
18.5625
18.375
18.25
18.0
17.9375
18.125
18.4375
18.5625
18.5
18.4375
18.5625
18.75
18.5625
18.25
18.125
18.1875
18.0625
18.0625
18.1875
18.1875
18.1875
18.3125
18.25
18.125
18.5
18.6875
18.6875
19.0625
19.0
18.1875
17.9375
18.4375
18.5
18.125
17.9375
18.1875
18.3125
18.3125
18.4375
18.625
18.4375
18.125
18.25
18.4375
18.375
18.4375
18.4375
18.3125
18.4375
18.625
18.4375
18.375
18.5625
18.6875
18.8125
19.0625
18.75
18.1875
18.0
17.9375
18.125
18.3125
18.25
18.125
18.4375
18.75
18.5625
18.25
18.1875
18.5
18.6875
18.5
18.1875
18.125
18.25
18.1875
18.125
18.3125
18.5
18.375
18.5
18.75
18.6875
18.375
18.1875
18.25
18.3125
18.0625
17.6875
17.6875
18.25
18.75
18.75
18.5
18.5625
18.75
18.5
18.0
17.9375
18.1875
18.1875
18.125
18.3125
18.625
18.625
18.4375
18.4375
18.5
18.375
18.375
18.75
18.875
18.3125
17.6875
17.75
18.1875
18.4375
18.375
18.4375
18.75
19.0
18.625
18.1875
18.3125
18.5625
18.5625
18.1875
18.0
17.9375
18.0
18.375
18.4375
18.4375
18.6875
18.9375
18.5625
18.0
18.3125
18.75
18.3125
18.125
18.5625
19.0
18.75
18.375
18.25
18.1875
18.3125
18.25
17.875
17.6875
18.125
18.875
18.9375
18.4375
18.375
18.8125
18.6875
17.875
17.375
17.9375
18.6875
18.4375
17.8125
17.9375
18.5625
19.0625
19.0
18.5625
18.375
18.3125
18.1875
18.125
18.1875
18.0
17.75
17.875
18.25
18.5625
18.5
18.375
18.5625
18.875
18.5625
18.125
18.375
18.625
18.5
18.125
18.0
18.375
18.625
18.625
18.6875
18.6875
18.5625
18.4375
18.375
18.1875
18.125
18.3125
18.125
17.8125
18.0
18.5
18.75
18.625
18.375
18.375
18.25
17.9375
18.125
18.5
18.25
18.0
18.375
18.75
18.5
18.1875
18.4375
18.875
18.75
18.3125
18.0
17.9375
18.0
17.9375
17.875
18.125
18.25
17.8125
17.5
17.875
18.8125
18.8125
17.8125
17.5625
18.6875
19.125
18.3125
18.1875
18.375
17.6875
17.4375
18.375
18.9375
18.375
18.125
18.4375
18.375
17.8125
17.875
18.375
18.375
18.5625
19.1875
19.375
18.6875
18.0
17.9375
18.125
17.9375
18.125
18.375
18.125
18.125
18.375
18.125
17.4375
17.3125
17.9375
18.6875
18.875
18.75
18.875
19.0625
18.5625
17.5625
17.4375
17.875
18.125
18.0
18.0
18.25
18.375
18.375
18.6875
19.0
18.8125
18.4375
18.375
18.375
18.0625
17.75
17.875
18.3125
18.3125
18.25
18.25
18.25
18.125
18.0625
18.25
18.3125
18.3125
18.4375
18.5
18.3125
18.25
18.3125
18.3125
18.125
17.875
17.8125
17.9375
18.1875
18.375
18.4375
18.4375
18.625
18.75
18.6875
18.5
18.1875
17.9375
17.8125
17.8125
17.8125
17.875
18.125
18.4375
18.5625
18.4375
18.375
18.3125
18.3125
18.375
18.3125
18.25
18.125
18.125
18.125
18.0625
18.0625
18.125
18.1875
18.1875
18.1875
18.3125
18.25
18.1875
18.1875
18.25
18.25
18.3125
18.25
18.125
18.125
18.125
18.125
18.0
17.6875
17.625
17.875
18.125
18.0625
18.1875
19.0
19.6875
18.9375
17.5625
18.0625
19.8125
19.0625
16.1875
16.0625
18.125
17.5625
16.4375
18.25
19.875
19.75
19.9375
20.0625
18.9375
17.1875
15.1875
14.5
15.625
16.9375
17.6875
18.0625
18.75
20.0
19.875
19.125
19.5
19.8125
19.4375
19.1875
19.625
20.0625
19.0625
17.6875
17.875
19.1875
20.0625
19.9375
19.75
19.8125
19.8125
19.875
19.75
19.5
19.25
19.1875
19.25
19.375
19.3125
19.0625
18.625
18.75
19.5625
20.1875
20.3125
20.3125
20.1875
19.9375
19.8125
19.875
19.8125
19.375
19.0625
19.125
19.0625
19.0625
19.5625
20.0
20.0625
20.0
19.8125
19.5
19.5
19.4375
19.1875
19.125
19.125
19.0
19.0
19.3125
19.5625
19.4375
19.5625
19.875
19.75
19.4375
19.5625
19.6875
19.5
19.3125
19.3125
19.25
19.1875
19.25
19.5625
19.875
19.875
19.6875
19.75
19.875
19.625
19.1875
18.6875
18.4375
18.5
18.875
19.4375
19.875
20.0
19.75
19.625
19.8125
19.8125
19.5625
19.3125
19.1875
18.875
18.5625
18.5
18.875
19.3125
19.4375
19.5
19.4375
19.4375
19.4375
19.375
19.25
19.125
18.9375
18.875
18.8125
18.8125
18.9375
19.1875
19.3125
19.3125
19.3125
19.4375
19.5625
19.4375
19.125
18.875
18.8125
18.75
18.75
18.8125
18.8125
19.0
19.25
19.3125
19.1875
19.1875
19.1875
19.125
19.0
18.9375
18.9375
18.9375
18.9375
19.0
19.125
19.1875
19.125
19.1875
19.1875
19.0625
19.0
19.0
19.0625
19.0625
19.0
18.875
18.6875
18.6875
18.75
18.8125
18.8125
18.75
18.75
18.5625
18.75
19.0
19.0
19.125
19.1875
19.0625
19.0
19.125
19.375
19.6875
19.8125
19.8125
19.875
19.9375
19.875
19.75
19.625
19.4375
19.4375
19.5
19.5
19.3125
19.375
19.8125
20.0
19.8125
19.625
19.6875
19.8125
19.8125
19.4375
19.3125
19.375
19.5
19.5
19.6875
19.875
19.9375
19.8125
19.6875
19.6875
19.6875
19.4375
19.3125
19.375
19.3125
19.25
19.3125
19.5625
19.6875
19.8125
19.75
19.625
19.5625
19.4375
19.125
19.0
19.0625
19.0
19.125
19.375
19.5
19.4375
19.5
19.5625
19.4375
19.3125
19.375
19.3125
19.25
19.25
19.3125
19.25
19.25
19.3125
19.375
19.3125
19.25
19.1875
19.1875
19.25
19.375
19.4375
19.375
19.375
19.4375
19.25
18.9375
18.8125
18.8125
18.8125
18.875
19.25
20.0
20.0625
19.3125
18.9375
19.1875
19.25
18.9375
18.625
18.625
18.9375
19.1875
19.125
19.125
19.4375
19.5
19.1875
18.875
18.8125
18.9375
18.8125
18.75
19.0
19.1875
19.125
19.125
19.375
19.5
19.5625
19.4375
19.375
19.1875
18.875
18.8125
18.8125
18.8125
18.6875
18.8125
19.125
19.25
19.0625
18.875
18.9375
19.125
19.0625
19.0
19.0625
19.0625
19.0
18.9375
19.0625
19.3125
19.375
19.1875
19.0
19.0
18.9375
18.875
18.9375
19.0625
19.0
18.9375
19.0
19.125
19.125
18.625
18.25
18.5
18.9375
18.8125
18.5
18.9375
19.5625
19.0
18.3125
19.0
20.0625
19.4375
18.4375
18.5625
18.875
18.5
18.3125
19.375
19.9375
19.875
19.8125
19.25
19.125
19.6875
19.3125
18.5625
19.3125
19.625
19.25
19.8125
20.1875
19.8125
20.0
20.3125
19.8125
19.4375
19.5
19.5625
19.375
19.3125
19.4375
19.75
19.9375
19.875
19.875
20.125
20.25
19.9375
19.5625
19.375
19.4375
19.5
19.375
19.25
19.375
19.5
19.5
19.5
19.625
19.8125
19.8125
19.8125
19.8125
19.5625
19.125
19.125
19.375
19.375
19.125
19.0625
19.3125
19.5
19.5
19.5
19.5625
19.5625
19.625
19.75
19.625
19.25
19.0
18.8125
18.875
19.3125
19.875
20.0
19.6875
19.6875
19.75
19.4375
19.0625
19.125
19.0625
18.875
18.875
19.125
19.25
19.375
19.5
19.4375
19.1875
19.125
19.375
19.375
19.1875
19.125
19.125
19.0
18.8125
18.9375
19.25
19.5
19.4375
19.25
19.1875
19.25
19.25
19.125
19.0
18.875
18.75
18.6875
18.625
18.6875
18.6875
19.0
19.375
19.5
19.625
19.625
19.25
18.75
18.8125
19.25
19.25
18.9375
18.9375
19.0625
19.0625
19.125
19.25
19.0
18.5625
18.625
19.0
19.125
19.0625
19.1875
19.25
19.0625
18.875
18.875
18.875
18.8125
18.75
18.875
19.125
19.25
19.3125
19.3125
19.4375
19.375
19.1875
18.875
18.625
18.4375
18.4375
18.25
18.0625
18.5
19.3125
19.5
19.25
19.125
19.125
18.9375
18.6875
18.6875
18.75
18.75
18.875
19.1875
19.3125
19.3125
19.1875
19.0625
18.9375
19.0625
19.0625
18.75
18.5625
18.625
18.5625
18.5625
18.875
19.0
18.8125
18.8125
19.0625
19.125
18.875
18.6875
18.6875
18.5625
18.375
18.3125
18.5625
18.8125
18.875
18.875
19.0
19.125
19.125
18.9375
18.625
18.4375
18.5
18.6875
18.8125
18.6875
18.5
18.5
18.75
18.875
19.0
19.1875
19.0
18.6875
18.8125
19.0
18.875
18.9375
19.1875
19.1875
19.0
19.125
19.375
19.625
19.875
20.0625
20.0
19.875
19.8125
19.75
19.625
19.5625
19.375
19.25
19.25
19.375
19.3125
19.5
19.875
19.875
19.8125
19.8125
19.75
19.5
19.25
19.0625
19.0
19.0
19.125
19.3125
19.4375
19.4375
19.6875
19.8125
19.875
19.9375
20.1875
20.0625
19.5625
19.1875
19.3125
19.5625
19.5
19.375
19.5625
19.875
21.25
23.9375
22.0625
15.1875
12.375
15.6875
19.6875
23.25
25.9375
23.4375
17.25
14.375
16.9375
20.375
20.4375
18.4375
18.375
21.0625
22.125
19.5
17.1875
17.625
17.6875
17.0
18.0
19.0
20.1875
22.5625
20.5
16.9375
18.25
20.6875
20.5625
19.8125
19.9375
19.875
19.1875
19.0625
19.875
20.75
20.625
19.6875
19.125
19.6875
20.125
19.5625
18.8125
18.4375
18.8125
20.125
20.375
18.5625
18.3125
20.3125
20.625
18.6875
17.75
18.5
18.8125
18.5625
18.9375
19.875
20.1875
19.875
19.75
20.3125
20.75
20.1875
19.4375
19.0625
18.9375
19.0
19.125
20.0
20.9375
20.5
19.4375
19.125
19.1875
19.125
19.4375
20.0
19.4375
19.0
19.0
18.6875
19.25
20.5625
20.4375
19.0625
18.375
18.9375
19.3125
19.25
19.25
18.25
16.6875
17.1875
18.75
19.125
19.25
20.5
21.5
21.0
20.0625
19.875
19.9375
19.1875
18.375
18.25
18.5
18.6875
18.75
18.6875
18.875
19.0625
19.25
19.3125
19.125
19.0625
19.1875
18.875
18.5
18.5
18.5
18.25
18.25
18.5625
18.9375
19.1875
19.5625
20.0
19.9375
19.4375
18.875
18.625
18.625
18.8125
19.0625
18.75
18.5
18.6875
18.9375
19.3125
19.8125
20.0625
20.0
19.875
19.8125
19.6875
19.5625
19.4375
19.25
19.0625
19.0
19.1875
19.4375
19.9375
20.25
20.1875
20.125
20.1875
20.125
19.8125
19.6875
19.75
19.625
19.375
19.3125
19.3125
19.375
19.75
20.125
20.25
20.3125
20.4375
20.125
19.5625
19.125
18.8125
18.625
18.9375
19.1875
18.9375
18.8125
19.1875
19.75
19.875
19.6875
19.5
19.375
19.25
19.25
19.125
18.8125
18.625
19.0
19.4375
19.5
19.5
19.8125
19.8125
19.375
19.0625
19.125
19.0
18.5625
18.625
19.0
18.9375
18.6875
18.75
19.1875
19.4375
19.375
19.375
19.3125
19.125
19.0625
19.0
18.8125
18.6875
18.9375
19.0625
19.0
19.125
19.3125
19.3125
19.25
19.25
19.125
19.0
18.8125
18.75
18.625
18.5625
18.6875
18.9375
19.0
19.125
19.375
19.5
19.375
19.3125
19.1875
18.9375
18.875
18.9375
18.6875
18.5625
18.875
19.0625
18.9375
19.0625
19.4375
19.5
19.3125
19.125
18.9375
18.6875
18.5625
18.625
18.625
18.75
19.0625
19.3125
19.1875
19.0625
19.25
19.375
19.1875
18.9375
18.9375
18.9375
18.9375
18.875
18.8125
18.75
18.875
19.0
19.0
19.0
19.125
19.1875
19.0
18.9375
18.8125
18.625
18.625
18.5625
18.5625
18.75
18.875
18.6875
18.75
19.125
19.125
18.9375
19.0
19.125
19.0625
19.0625
19.125
19.25
19.375
19.5
19.625
19.8125
19.6875
19.5
19.6875
19.9375
19.75
19.4375
19.375
19.5
19.4375
19.4375
19.5
19.5625
19.625
19.6875
19.6875
19.6875
19.625
19.5625
19.4375
19.4375
19.375
19.3125
19.375
19.8125
20.1875
19.875
19.4375
19.5
19.5
19.3125
19.1875
19.3125
19.3125
19.25
19.25
19.25
19.3125
19.4375
19.375
19.5
19.625
19.5
19.25
19.3125
19.4375
19.3125
19.1875
19.1875
19.3125
19.375
19.3125
19.3125
19.25
19.25
19.375
19.375
19.1875
19.1875
19.125
19.0625
19.0
19.0625
19.1875
19.25
19.1875
19.25
19.375
19.375
19.3125
19.375
19.375
19.25
19.125
19.0625
18.9375
18.9375
19.0625
19.0
19.125
19.25
19.125
19.125
19.1875
19.1875
19.125
19.125
19.0625
19.0
18.9375
18.9375
19.0625
19.0625
18.9375
19.0
19.25
19.125
18.8125
18.875
19.125
19.0625
18.625
18.4375
18.75
18.875
19.0625
19.3125
19.5
19.625
19.375
18.9375
18.6875
18.4375
18.5
18.5
18.375
18.5
18.5625
18.75
18.875
18.75
18.875
19.0625
18.875
18.625
19.0
19.4375
19.125
18.75
19.0625
19.625
19.625
18.9375
18.75
19.0
19.125
19.0625
19.125
19.0625
18.875
18.625
18.5
18.125
17.9375
18.1875
18.625
18.6875
18.6875
18.8125
18.9375
19.0
19.3125
19.6875
19.6875
19.5
19.4375
19.3125
19.1875
19.1875
19.5
19.875
19.6875
19.6875
20.25
20.375
19.625
18.875
18.8125
19.3125
19.9375
20.1875
20.0
19.75
19.5625
19.4375
19.375
19.4375
19.4375
19.125
19.125
19.625
19.625
19.1875
19.25
19.625
19.4375
19.25
19.6875
20.0625
19.8125
19.625
19.6875
19.5
19.25
19.375
19.5
19.375
19.0625
18.9375
19.0625
19.1875
19.1875
19.375
19.5625
19.5625
19.4375
19.375
19.375
19.375
19.375
19.0625
18.875
18.9375
19.25
19.25
19.0625
19.25
19.625
19.6875
19.5625
19.3125
19.0625
18.9375
19.0
19.0625
19.1875
19.4375
19.5625
19.3125
19.0625
19.0625
19.1875
19.0
19.0
19.25
19.5625
19.5
19.375
19.375
19.25
19.0625
19.0625
19.0
18.875
18.6875
18.875
19.25
19.1875
19.0
19.125
19.375
19.25
19.1875
19.25
19.125
18.9375
19.0
18.875
18.875
19.0625
19.1875
19.0625
18.9375
18.875
18.75
18.625
18.6875
18.875
19.0
18.875
18.875
18.875
18.9375
18.875
18.9375
19.0
18.9375
18.75
18.625
18.6875
19.0
19.25
19.125
18.9375
19.0625
19.25
19.1875
18.875
18.875
19.125
19.125
18.8125
18.6875
18.625
18.6875
18.5625
18.5625
18.6875
18.9375
18.9375
18.6875
18.625
18.75
18.6875
18.625
18.75
18.875
18.875
18.8125
18.75
18.875
18.8125
18.75
18.75
18.75
18.875
18.875
18.8125
19.125
19.4375
19.375
19.1875
19.3125
19.5
19.5
19.4375
19.4375
19.5
19.5625
19.5625
19.625
19.6875
19.625
19.5
19.5
19.5625
19.5625
19.5
19.4375
19.5625
19.6875
19.625
19.4375
19.3125
19.25
19.3125
19.4375
19.4375
19.3125
19.4375
19.6875
19.75
19.5
19.375
19.5
19.625
19.6875
19.5625
19.4375
19.3125
19.3125
19.3125
19.25
19.25
19.4375
19.4375
19.1875
19.0
19.0
19.0625
19.125
19.3125
19.5
19.4375
19.125
19.25
19.4375
19.375
19.25
19.25
19.25
19.25
19.3125
19.3125
19.1875
19.0625
19.0625
19.125
19.25
19.25
19.125
18.875
18.875
19.0
19.0
19.0
19.0
18.9375
19.0
19.125
19.125
19.0625
19.0
19.0
19.125
19.0625
18.875
18.9375
19.125
19.125
18.8125
18.875
19.0
18.9375
18.875
18.9375
19.0625
19.0
18.9375
18.9375
18.9375
18.8125
18.875
19.0
19.125
19.0
18.9375
18.9375
19.0625
19.0625
18.875
18.75
18.9375
19.0
18.75
18.625
18.9375
19.125
18.875
18.75
18.9375
19.0625
19.0625
18.8125
18.75
18.875
19.0
18.875
18.8125
18.8125
19.0
19.125
19.0
18.875
18.875
18.875
18.75
18.625
18.625
18.5625
18.6875
18.9375
19.125
19.0
18.875
19.0
18.875
18.8125
18.9375
19.0
18.8125
18.75
18.8125
18.75
18.5625
18.5
18.5
18.5625
18.6875
18.8125
18.6875
18.5
18.75
18.875
18.75
18.625
18.625
18.6875
18.8125
18.8125
18.875
19.0
19.0625
18.875
18.6875
18.6875
18.75
18.75
18.875
18.9375
19.0625
19.375
19.3125
19.0625
19.0
19.25
19.4375
19.4375
19.4375
19.4375
19.5
19.625
19.625
19.4375
19.4375
19.5625
19.625
19.6875
19.6875
19.6875
19.75
19.8125
19.75
19.5
19.5
19.6875
19.75
19.75
19.75
19.375
19.125
19.4375
19.5625
19.3125
19.25
19.375
19.1875
18.9375
19.1875
19.625
19.5625
19.3125
19.375
19.375
19.125
19.125
19.3125
19.3125
19.1875
19.1875
19.3125
19.375
19.25
19.1875
19.125
19.0625
19.0625
19.0625
19.0625
19.25
19.5
19.5625
19.4375
19.3125
19.1875
19.125
19.0625
19.0625
19.25
19.3125
19.25
19.125
19.0625
19.0
18.875
18.875
19.125
19.25
19.125
18.9375
18.9375
19.0625
18.9375
19.0625
19.3125
19.1875
19.0
19.1875
19.1875
18.6875
18.625
19.125
19.3125
19.125
19.125
19.4375
19.25
18.5
18.1875
18.625
19.0
18.9375
18.8125
18.9375
19.0625
19.0625
18.875
18.875
19.0625
19.125
19.0
18.8125
18.875
19.0
18.9375
18.75
18.8125
19.0
19.0
18.8125
18.75
19.0
19.0625
19.0
19.0
19.0625
19.0625
19.0
18.9375
18.75
18.75
18.875
18.75
18.625
18.875
19.0625
19.0
18.9375
18.9375
18.875
18.6875
18.6875
18.75
18.6875
18.6875
18.6875
18.8125
18.875
18.6875
18.8125
19.0625
19.125
19.125
19.0
18.875
18.8125
18.875
18.75
18.6875
18.6875
18.75
18.6875
18.6875
18.8125
18.875
18.875
18.875
18.75
18.5625
18.6875
18.8125
18.625
18.5
18.8125
19.0625
18.75
18.5625
18.6875
18.8125
18.6875
18.5625
18.625
18.8125
18.6875
18.5
18.375
18.5
18.6875
18.8125
18.75
18.6875
18.75
18.875
18.9375
18.9375
19.0
19.25
19.25
19.1875
19.25
19.3125
19.25
19.25
19.3125
19.375
19.5625
19.6875
19.8125
19.6875
19.4375
19.3125
19.375
19.5
19.625
19.625
19.6875
19.75
19.6875
19.5625
19.5625
19.625
19.5625
19.4375
19.5
19.5
19.3125
19.3125
19.4375
19.3125
19.3125
19.375
19.4375
19.375
19.375
19.375
19.375
19.375
19.375
19.4375
19.375
19.375
19.25
19.1875
19.25
19.3125
19.25
19.25
19.375
19.3125
19.125
19.125
19.1875
19.1875
19.1875
19.1875
19.3125
19.25
19.1875
19.25
19.375
19.3125
19.25
19.25
19.1875
19.0625
19.125
19.125
19.0
19.0
19.0
19.0
19.0
19.0
19.0
19.0
19.125
19.125
18.9375
18.9375
19.1875
19.125
18.875
19.0
19.3125
19.25
18.9375
19.0625
19.25
19.125
18.875
18.875
18.9375
19.0
18.9375
18.9375
18.9375
19.0
19.0
18.9375
18.9375
19.0625
19.0625
18.9375
18.875
19.0625
19.0625
18.875
18.875
18.9375
18.875
18.9375
18.9375
18.8125
18.75
18.8125
18.9375
18.8125
18.625
18.6875
18.8125
18.8125
18.8125
18.8125
18.875
18.875
18.875
18.75
18.75
18.75
18.8125
18.75
18.75
18.6875
18.6875
18.8125
18.875
18.8125
18.8125
18.9375
19.0
18.8125
18.75
18.75
18.6875
18.625
18.625
18.75
18.875
18.6875
18.625
18.75
18.8125
18.6875
18.6875
18.75
18.875
18.75
18.625
18.625
18.625
18.625
18.75
18.75
18.875
19.0625
18.875
18.6875
18.875
19.0
18.8125
18.5
18.375
18.5625
18.6875
18.6875
18.75
18.875
18.8125
18.6875
18.6875
18.875
19.0
18.9375
18.6875
18.6875
18.6875
18.5625
18.5625
18.6875
18.8125
18.75
18.625
18.625
18.625
18.5625
18.5625
18.5625
18.625
18.625
18.625
18.5625
18.5
18.5
18.5
18.5
18.5625
18.6875
18.75
18.625
18.625
18.625
18.5625
18.6875
19.25
19.5
19.3125
19.4375
19.5625
19.625
19.625
19.5
19.4375
19.5
19.625
19.5625
19.375
19.375
19.4375
19.4375
19.4375
19.5625
19.75
19.875
19.75
19.6875
19.75
19.8125
19.625
19.5
19.5
19.4375
19.375
19.375
19.5
19.4375
19.3125
19.4375
19.5625
19.4375
19.3125
19.3125
19.25
19.25
19.375
19.375
19.1875
19.125
19.4375
19.5625
19.375
19.25
19.375
19.375
19.25
19.1875
19.0625
18.8125
18.9375
19.125
19.1875
19.125
19.0625
19.0625
19.1875
19.25
19.1875
19.1875
19.375
19.375
19.125
19.0625
19.125
19.1875
19.3125
19.4375
19.375
19.5
19.3125
18.8125
19.0625
19.5625
19.25
18.8125
18.875
19.0625
19.0625
19.0
19.0
18.9375
18.8125
18.8125
18.8125
18.9375
19.0625
19.0625
19.0625
18.9375
18.9375
18.9375
19.0
18.9375
18.9375
19.0
19.0625
19.0
19.0625
19.1875
19.125
19.0625
19.0
18.9375
18.875
18.875
18.875
18.9375
19.0
19.0625
19.0625
19.0625
19.0625
18.9375
18.9375
19.0625
19.0625
19.0
19.125
19.0
18.875
18.875
19.0625
19.0
18.9375
18.9375
19.0
18.875
18.9375
19.0
18.8125
18.75
18.9375
18.8125
18.6875
18.9375
19.1875
19.0
18.6875
18.75
19.0
19.0
18.875
18.875
19.0625
19.125
18.875
18.6875
18.8125
18.9375
18.75
18.625
18.8125
18.875
18.6875
18.625
18.6875
18.8125
18.875
18.8125
18.8125
18.875
18.9375
18.8125
18.8125
18.9375
18.875
18.625
18.5625
18.625
18.75
18.75
18.6875
18.75
18.75
18.75
18.8125
18.8125
18.8125
18.75
18.8125
18.9375
19.0
18.875
18.625
18.5625
18.625
18.5625
18.5625
18.75
18.875
18.8125
18.6875
18.6875
18.8125
18.9375
18.9375
18.8125
18.8125
18.9375
19.0
18.8125
18.625
18.6875
18.6875
18.625
18.625
18.625
18.875
18.875
18.5625
18.4375
18.6875
18.875
18.6875
18.25
18.1875
18.6875
19.125
18.875
18.5625
18.75
18.8125
18.5
18.375
18.5625
18.75
18.75
18.6875
18.75
18.75
18.625
18.5625
18.5625
18.5625
18.5625
18.5625
18.5625
18.6875
18.6875
18.625
18.625
18.75
18.625
18.4375
18.5
18.625
18.5625
18.375
18.4375
18.5
18.5625
18.5625
18.625
18.625
18.6875
18.75
18.75
18.6875
18.6875
18.6875
18.5625
18.5
18.5625
18.625
18.5
18.5
18.625
18.5625
18.5
18.5
18.625
18.5
18.4375
18.625
18.625
18.4375
18.4375
18.8125
18.5625
18.375
19.125
19.375
18.6875
18.1875
18.625
18.9375
18.5625
18.25
18.375
18.3125
17.8125
17.6875
18.1875
18.4375
18.4375
18.625
18.75
18.5
18.1875
18.375
18.8125
18.8125
18.75
18.6875
18.6875
18.75
18.75
18.625
18.5
18.625
18.6875
18.5625
18.5
18.5625
18.4375
18.25
18.3125
18.4375
18.375
18.3125
18.4375
18.6875
18.5625
18.25
18.4375
18.6875
18.4375
18.1875
18.3125
18.4375
18.3125
18.3125
18.5625
18.625
18.5
18.5
18.5625
18.5
18.5
18.625
18.625
18.5
18.4375
18.5
18.5
18.4375
18.4375
18.5
18.5
18.5
18.5
18.4375
18.375
18.4375
18.375
18.125
18.1875
18.5
18.75
18.625
18.375
18.3125
18.5625
18.75
18.625
18.5625
18.6875
18.8125
18.75
18.5
18.375
18.5625
18.6875
18.5625
18.4375
18.5
18.5
18.375
18.375
18.375
18.4375
18.25
18.1875
18.25
18.375
18.375
18.3125
18.375
18.5625
18.5
18.3125
18.25
18.4375
18.5625
18.4375
18.4375
18.5625
18.6875
18.5
18.25
18.375
18.5625
18.625
18.4375
18.1875
18.1875
18.25
18.4375
18.5
18.4375
18.3125
18.3125
18.375
18.3125
18.3125
18.4375
18.5
18.4375
18.375
18.375
18.4375
18.4375
18.375
18.375
18.375
18.4375
18.5
18.4375
18.375
18.4375
18.5
18.4375
18.4375
18.4375
18.375
18.25
18.25
18.25
18.375
18.4375
18.4375
18.5
18.5
18.4375
18.25
18.25
18.25
18.1875
18.125
18.1875
18.3125
18.4375
18.4375
18.5
18.5625
18.5625
18.5
18.5
18.625
18.625
18.5
18.375
18.375
18.4375
18.3125
18.25
18.25
18.3125
18.25
18.25
18.3125
18.25
18.125
18.25
18.4375
18.5
18.3125
18.1875
18.375
18.5625
18.4375
18.375
18.375
18.5
18.375
18.25
18.375
18.5625
18.4375
18.375
18.25
18.1875
18.25
18.3125
18.3125
18.3125
18.375
18.375
18.25
18.0625
18.0
18.1875
18.4375
18.3125
18.1875
18.1875
18.3125
18.25
18.125
18.0625
18.125
18.1875
18.3125
18.25
18.1875
18.3125
18.375
18.3125
18.3125
18.5
18.5
18.3125
18.3125
18.4375
18.375
18.3125
18.3125
18.375
18.3125
18.25
18.3125
18.4375
18.4375
18.3125
18.3125
18.3125
18.3125
18.3125
18.1875
18.1875
18.25
18.3125
18.25
18.1875
18.25
18.3125
18.3125
18.25
18.25
18.3125
18.25
18.3125
18.5
18.5625
18.3125
18.125
18.1875
18.375
18.1875
18.0625
18.1875
18.375
18.25
18.0625
18.125
18.25
18.125
18.125
18.25
18.375
18.25
18.125
18.25
18.4375
18.4375
18.1875
18.1875
18.375
18.375
18.25
18.1875
18.1875
18.25
18.375
18.3125
18.3125
18.3125
18.4375
18.375
18.1875
18.125
18.25
18.3125
18.25
18.375
18.5
18.375
18.125
18.1875
18.25
18.125
18.0
18.125
18.25
18.125
18.0625
18.1875
18.25
18.25
18.25
18.3125
18.25
18.25
18.3125
18.25
18.1875
18.1875
18.1875
18.1875
18.25
18.375
18.375
18.3125
18.5
18.625
18.4375
18.1875
18.1875
18.25
18.125
18.0625
18.0625
18.0625
18.0625
18.0625
18.1875
18.3125
18.25
18.3125
18.3125
18.25
18.125
18.1875
18.25
18.1875
18.1875
18.3125
18.4375
18.375
18.3125
18.1875
18.125
18.1875
18.25
18.1875
18.0625
18.0625
18.0
18.0
18.0
18.0625
18.0
18.0625
18.25
18.375
18.3125
18.3125
18.5
18.5
18.3125
18.25
18.25
18.25
18.25
18.1875
18.0
18.0
18.25
18.25
18.0625
18.0
18.125
18.1875
18.25
18.4375
18.5
18.3125
18.1875
18.25
18.3125
18.1875
18.0
18.0625
18.1875
18.25
18.125
18.125
18.1875
18.3125
18.25
18.125
18.125
18.1875
18.25
18.25
18.25
18.25
18.1875
18.125
18.125
18.125
18.0625
18.125
18.1875
18.1875
18.125
18.125
18.125
18.0625
18.0
18.0625
18.1875
18.1875
18.1875
18.125
18.125
18.25
18.375
18.3125
18.25
18.3125
18.25
18.125
18.0625
18.125
18.0625
17.9375
18.0
18.1875
18.1875
18.0625
17.9375
17.9375
18.125
18.3125
18.1875
18.0
18.125
18.25
18.25
18.1875
18.25
18.375
18.25
18.1875
18.25
18.25
18.0625
18.125
18.3125
18.25
18.0
17.875
17.9375
17.9375
17.875
18.0
18.1875
18.3125
18.5
18.5
18.0625
17.8125
18.125
18.5
18.5625
18.375
18.1875
17.9375
18.0
18.125
18.25
18.4375
18.625
18.5
18.0
17.75
17.875
17.9375
17.8125
17.75
18.0625
18.375
18.25
18.0
17.9375
18.0625
18.1875
18.25
18.125
18.1875
18.1875
17.875
17.6875
18.0625
18.3125
18.125
18.1875
18.3125
18.3125
18.3125
18.125
17.75
17.8125
18.1875
18.25
18.0
17.9375
18.0625
18.25
18.1875
18.125
18.125
18.0625
18.0
18.25
18.3125
18.125
17.9375
18.0625
18.25
18.0625
17.75
17.9375
18.5
18.625
18.3125
18.25
18.3125
18.125
17.9375
18.125
18.25
18.0625
18.0625
18.375
18.4375
18.3125
18.25
18.25
18.375
18.375
18.125
17.9375
17.9375
18.0
18.0
18.125
18.0625
17.8125
17.875
18.1875
18.3125
18.125
17.875
17.875
17.9375
17.9375
18.125
18.375
18.5625
18.25
17.8125
17.625
17.9375
18.5
18.625
18.1875
17.625
17.4375
17.6875
18.0625
18.125
18.0625
18.0625
18.3125
18.6875
19.125
18.0625
16.75
17.375
18.375
18.0625
17.75
18.1875
18.375
18.0
17.8125
18.1875
18.3125
18.0625
18.25
18.25
17.625
17.375
18.0625
18.6875
18.1875
17.625
18.3125
19.375
18.5
17.1875
17.5625
17.875
18.0
18.4375
18.25
17.75
18.3125
18.875
18.4375
17.75
17.625
17.8125
17.5
17.1875
17.625
18.25
18.4375
18.125
18.0
18.375
18.75
18.8125
18.6875
18.5625
18.25
17.875
17.75
17.9375
18.0
17.875
17.75
17.8125
17.9375
18.0625
18.0625
18.0625
18.125
18.0625
17.9375
17.75
17.625
18.0
18.625
18.75
18.5
18.3125
18.3125
18.25
18.125
18.125
18.25
18.125
17.9375
17.9375
18.0
18.0
18.0
18.0
17.9375
18.0625
18.25
18.375
18.375
18.3125
18.125
17.9375
17.875
17.9375
17.9375
18.1875
18.375
18.375
18.25
18.125
18.125
18.0625
18.0
18.0
18.0
17.9375
17.875
17.875
18.0
18.125
18.1875
18.1875
18.25
18.0625
18.0
18.125
18.125
18.0
18.0
18.0625
18.0625
18.0
18.0
18.0625
18.125
18.0625
17.9375
17.875
17.875
18.0
18.0625
18.0625
18.125
18.25
18.125
18.0
18.25
18.4375
18.5625
18.5
18.0625
17.9375
18.125
18.1875
17.9375
17.875
18.0625
18.0
17.8125
17.75
17.875
18.0625
18.0625
17.875
17.8125
17.9375
18.0
18.0625
18.125
18.1875
18.0625
18.0625
18.25
18.25
18.0625
18.1875
18.625
18.5
17.9375
17.5625
17.5
17.5
17.625
17.875
18.0625
18.125
18.125
18.0625
17.9375
17.8125
17.8125
17.8125
17.9375
17.8125
17.5625
17.625
17.8125
17.9375
18.0
18.0
18.125
18.25
18.3125
18.125
17.9375
17.9375
17.9375
17.75
17.875
18.0625
18.125
18.1875
18.1875
17.8125
17.375
17.4375
17.8125
18.0625
18.0625
18.0625
17.9375
17.8125
17.8125
18.0625
18.4375
18.375
17.9375
17.625
17.75
18.0625
18.125
18.0625
17.9375
17.875
17.75
17.75
17.8125
17.9375
18.0625
18.0
17.9375
17.9375
18.0
18.0
18.0
18.25
18.3125
18.0
17.875
18.0625
18.1875
18.0625
17.875
17.8125
17.6875
17.625
17.6875
17.75
17.8125
18.0
18.0625
17.9375
18.0625
18.375
18.375
18.0625
17.9375
18.0625
17.875
17.625
17.625
17.8125
18.0
18.0625
18.125
18.125
18.125
18.25
18.25
18.0625
17.9375
17.875
17.75
17.625
17.6875
17.8125
17.875
18.0625
18.1875
18.125
18.125
18.25
18.125
17.875
17.8125
17.875
17.75
17.625
17.75
17.9375
18.0625
18.125
18.1875
18.0625
18.0
18.0625
18.0
17.875
17.8125
17.875
17.75
17.6875
17.8125
17.9375
18.0625
18.0
18.0
18.125
18.25
18.1875
18.1875
18.0625
17.9375
17.875
17.8125
17.75
17.75
18.0
18.1875
18.125
18.0625
18.0625
18.125
18.0625
18.0
17.8125
17.625
17.6875
17.75
17.6875
17.75
18.0625
18.1875
18.0625
18.0
18.1875
18.1875
17.9375
17.875
17.9375
17.8125
17.625
17.625
17.75
17.9375
18.0
18.0625
18.0625
18.0625
18.0
18.0
17.9375
17.875
17.875
17.875
18.0
17.875
17.875
18.0
18.0625
18.0
18.0
17.9375
18.0
18.0
17.8125
17.6875
17.8125
17.9375
17.8125
17.75
17.875
18.0
18.0625
18.0
18.0
18.0
18.0625
18.0
17.875
17.8125
17.875
17.9375
17.875
17.8125
17.9375
18.0625
18.0
17.9375
17.9375
17.9375
17.9375
17.875
17.875
17.9375
17.8125
17.8125
17.875
18.0625
18.0625
18.0
18.0
18.125
18.0
17.875
17.8125
17.875
17.9375
17.8125
17.875
17.9375
17.875
17.8125
17.875
18.0625
18.125
17.9375
17.75
17.9375
18.0625
17.875
17.625
17.6875
17.9375
18.0
17.875
17.875
17.9375
18.0625
18.0625
17.875
17.75
17.875
18.0625
17.9375
17.9375
17.875
17.8125
17.875
17.9375
18.0
18.0
18.0
18.0
18.0
18.0
17.9375
17.875
17.75
17.75
17.875
17.9375
17.9375
17.9375
18.0
18.0625
18.0
17.9375
17.875
17.9375
17.9375
17.8125
17.8125
17.9375
18.0
17.875
17.8125
17.9375
18.0
18.0
17.9375
18.0625
18.0625
17.875
17.8125
17.9375
17.9375
17.875
17.875
18.0
17.9375
17.8125
17.875
18.125
18.1875
18.0625
17.9375
17.9375
17.875
17.8125
17.75
17.8125
18.0
18.0625
17.9375
17.875
17.875
18.0
17.9375
17.9375
17.9375
18.0
17.9375
17.875
18.0
18.1875
17.9375
17.6875
17.8125
18.0
17.9375
17.875
17.875
17.9375
17.875
17.8125
17.8125
17.8125
17.875
17.9375
17.9375
18.0
17.9375
17.9375
17.9375
18.0625
18.0625
17.9375
17.9375
18.0
17.9375
17.8125
17.75
17.8125
17.8125
17.6875
17.625
17.8125
17.875
17.875
18.0
18.125
18.125
18.125
18.0625
17.9375
17.875
17.8125
17.75
17.75
17.8125
17.875
17.875
17.875
17.9375
17.9375
17.9375
17.9375
17.875
17.75
17.75
17.75
17.75
17.8125
17.875
17.9375
17.9375
18.0
18.1875
18.1875
18.0625
18.0625
17.9375
17.8125
17.6875
17.8125
17.875
17.75
17.8125
17.9375
17.875
17.8125
18.0
18.0625
17.875
17.75
17.875
17.875
17.6875
17.75
17.9375
18.0
17.9375
17.9375
17.9375
17.875
18.0
18.0625
18.0625
18.0
17.875
17.8125
17.8125
17.9375
17.875
17.75
17.8125
18.0
18.0
17.8125
17.8125
18.0625
18.0625
18.0
17.9375
17.9375
17.875
17.875
18.0
17.9375
17.8125
17.8125
17.8125
17.8125
17.875
18.0
18.0
17.9375
17.9375
17.9375
17.8125
17.75
17.9375
17.9375
17.8125
17.8125
17.9375
17.875
17.8125
17.875
18.0
17.9375
17.8125
17.8125
17.8125
17.75
17.6875
17.75
18.125
18.4375
18.3125
17.9375
17.75
17.75
17.875
18.0
17.9375
17.8125
17.8125
17.875
18.0
17.9375
17.875
17.875
18.0
18.1875
18.1875
18.0
18.0625
18.125
17.9375
17.6875
17.875
18.25
18.0625
17.75
17.875
17.9375
17.5625
17.4375
17.6875
17.875
17.8125
17.625
17.4375
17.5625
17.75
17.8125
17.6875
17.625
17.875
18.125
18.125
18.0
18.0
18.0625
18.0
18.1875
18.1875
17.875
17.625
17.75
17.9375
17.9375
17.9375
17.9375
17.9375
17.875
17.9375
17.9375
17.875
17.875
17.8125
17.75
17.625
17.5625
17.75
17.9375
18.0625
18.125
18.0625
18.0625
18.0
17.875
17.8125
17.8125
17.875
17.875
17.8125
17.8125
17.875
18.0
17.9375
17.75
17.5625
17.625
17.8125
17.875
17.875
17.8125
17.8125
17.75
17.6875
17.6875
17.8125
17.875
17.875
17.9375
17.9375
17.9375
17.875
17.875
17.875
17.8125
17.8125
17.8125
17.9375
17.9375
17.8125
17.75
17.8125
17.9375
17.875
17.8125
17.875
17.9375
17.875
17.8125
17.6875
17.6875
17.875
17.9375
17.8125
17.8125
17.875
18.0
17.9375
17.875
17.8125
17.75
17.875
17.875
17.75
17.75
17.9375
18.0
17.9375
17.9375
18.0
18.0
17.875
17.6875
17.625
17.625
17.6875
17.75
17.875
18.0
18.0
18.0
18.0
17.875
17.75
17.75
17.8125
17.8125
17.875
17.9375
17.875
17.875
17.9375
17.875
17.9375
18.0
17.8125
17.6875
17.8125
17.8125
17.5625
17.5625
17.8125
17.9375
17.8125
17.8125
17.8125
17.875
17.875
17.875
17.875
17.6875
17.625
17.6875
17.8125
17.875
17.8125
17.75
17.8125
17.9375
17.9375
17.8125
17.8125
17.875
17.9375
17.9375
17.9375
18.0
17.875
17.8125
17.875
17.875
17.6875
17.5625
17.6875
17.8125
17.8125
17.8125
17.8125
17.875
17.9375
17.875
17.8125
17.875
18.0
17.875
17.8125
17.8125
17.9375
17.875
17.8125
17.8125
17.8125
17.875
17.875
18.0
17.8125
17.375
17.3125
17.8125
18.125
17.8125
17.625
17.875
17.875
17.75
17.75
17.875
17.9375
17.9375
17.875
17.75
17.75
17.875
17.875
17.75
17.6875
17.75
17.75
17.8125
17.8125
17.9375
17.9375
17.8125
17.8125
17.9375
17.875
17.8125
17.8125
18.0
17.9375
17.75
17.75
17.875
17.875
17.8125
17.8125
17.9375
18.0
17.9375
17.8125
17.75
17.75
17.6875
17.625
17.625
17.6875
17.75
17.8125
17.875
17.9375
17.9375
17.9375
17.875
17.75
17.75
17.875
17.8125
17.6875
17.5625
17.8125
17.9375
17.8125
17.75
17.875
18.0
17.9375
17.6875
17.6875
17.8125
17.875
17.75
17.6875
17.75
17.875
17.8125
17.8125
17.9375
17.9375
17.8125
17.6875
17.8125
17.875
17.75
17.6875
17.8125
17.9375
17.8125
17.75
17.75
17.8125
17.875
17.875
17.8125
17.75
17.75
17.8125
17.8125
17.8125
17.75
17.6875
17.6875
17.75
17.8125
17.9375
17.875
17.75
17.8125
18.0
17.75
17.5625
17.75
17.75
17.5625
17.6875
17.8125
17.6875
17.6875
18.0
18.0
17.8125
17.6875
17.75
17.8125
17.8125
17.8125
17.8125
17.8125
17.75
17.6875
17.6875
17.75
17.8125
17.8125
17.8125
17.8125
17.8125
17.75
17.75
17.875
17.875
17.8125
17.8125
17.8125
17.9375
17.8125
17.75
17.75
17.8125
17.875
17.875
17.875
17.875
17.75
17.6875
17.6875
17.6875
17.6875
17.75
17.8125
17.875
17.875
17.875
17.75
17.75
17.875
17.875
17.75
17.75
17.75
17.6875
17.6875
17.6875
17.75
17.8125
17.75
17.6875
17.75
17.75
17.75
17.8125
17.75
17.75
17.875
17.8125
17.75
17.8125
17.875
17.75
17.625
17.6875
17.75
17.625
17.625
17.625
17.6875
17.6875
17.625
17.6875
17.75
17.75
17.875
17.9375
17.9375
17.9375
18.0
17.9375
17.8125
17.8125
17.8125
17.875
17.8125
17.6875
17.6875
17.8125
17.875
17.75
17.6875
17.625
17.625
17.6875
17.75
17.8125
17.9375
17.9375
17.9375
17.9375
17.9375
17.8125
17.8125
17.875
17.75
17.625
17.6875
17.75
17.6875
17.625
17.6875
17.75
17.6875
17.6875
17.75
17.75
17.75
17.8125
17.875
17.875
17.8125
17.75
17.75
17.8125
17.875
17.875
17.875
17.875
17.6875
17.5625
17.625
17.75
17.6875
17.6875
17.875
18.0
17.8125
17.75
17.8125
17.8125
17.6875
17.625
17.6875
17.625
17.5625
17.625
17.75
17.75
17.75
17.8125
17.9375
17.9375
17.875
17.8125
17.875
17.8125
17.75
17.625
17.625
17.75
17.8125
17.6875
17.5625
17.625
17.6875
17.8125
17.8125
17.75
17.6875
17.6875
17.8125
17.9375
17.8125
17.75
17.8125
17.8125
17.6875
17.6875
17.8125
17.6875
17.6875
17.875
17.875
17.625
17.5
17.6875
17.875
17.8125
17.6875
17.75
17.75
17.8125
17.8125
17.8125
17.6875
17.75
17.875
17.875
17.6875
17.625
17.8125
17.875
17.8125
17.75
17.75
17.6875
17.75
17.8125
17.75
17.75
17.8125
17.8125
17.8125
17.8125
17.8125
17.75
17.6875
17.6875
17.75
17.75
17.75
17.75
17.75
17.8125
17.8125
17.75
17.75
17.8125
17.8125
17.75
17.6875
17.75
17.8125
17.75
17.6875
17.6875
17.8125
17.75
17.625
17.625
17.8125
17.9375
17.8125
17.6875
17.6875
17.75
17.625
17.625
17.75
17.9375
17.9375
17.6875
17.5625
17.6875
17.8125
17.8125
17.6875
17.75
17.8125
17.6875
17.625
17.625
17.75
17.8125
17.8125
17.8125
17.75
17.6875
17.6875
17.75
17.875
17.875
17.75
17.5625
17.625
17.875
17.8125
17.625
17.625
17.875
17.875
17.6875
17.6875
17.75
17.75
17.75
17.8125
17.625
17.5625
17.75
17.875
17.6875
17.6875
17.75
17.8125
17.8125
17.75
17.8125
17.6875
17.625
17.625
17.625
17.625
17.6875
17.6875
17.8125
17.75
17.6875
17.75
17.8125
17.75
17.6875
17.75
17.8125
17.6875
17.5625
17.625
17.75
17.75
17.6875
17.6875
17.8125
17.875
17.6875
17.625
17.75
17.875
17.8125
17.6875
17.75
17.8125
17.8125
17.875
17.8125
17.5625
17.5625
17.8125
17.875
17.8125
17.8125
17.8125
17.75
17.6875
17.625
17.6875
17.6875
17.6875
17.6875
17.75
17.8125
17.8125
17.6875
17.6875
17.75
17.6875
17.5
17.4375
17.6875
17.8125
17.6875
17.625
17.75
17.875
17.6875
17.6875
17.6875
17.75
17.75
17.75
17.75
17.6875
17.6875
17.75
17.625
17.625
17.6875
17.6875
17.6875
17.6875
17.625
17.5625
17.5625
17.6875
17.75
17.75
17.6875
17.75
17.8125
17.9375
17.875
17.75
17.6875
17.75
17.625
17.5625
17.5
17.5
17.625
17.6875
17.75
17.875
17.875
17.8125
17.75
17.75
17.6875
17.625
17.5625
17.625
17.75
17.75
17.625
17.625
17.75
17.8125
17.75
17.75
17.8125
17.75
17.5625
17.5625
17.6875
17.625
17.5625
17.625
17.6875
17.625
17.625
17.6875
17.6875
17.6875
17.6875
17.625
17.625
17.6875
17.75
17.625
17.6875
17.875
17.75
17.625
17.75
17.875
17.8125
17.5625
17.5625
17.6875
17.75
17.625
17.5625
17.625
17.6875
17.6875
17.5625
17.5625
17.6875
17.8125
17.6875
17.625
17.625
17.6875
17.75
17.6875
17.6875
17.6875
17.8125
17.75
17.625
17.5625
17.8125
17.875
17.6875
17.5
17.625
17.8125
17.6875
17.4375
17.5
17.75
17.75
17.6875
17.6875
17.6875
17.6875
17.75
17.6875
17.625
17.6875
17.6875
17.625
17.5625
17.75
17.8125
17.6875
17.625
17.625
17.6875
17.6875
17.6875
17.75
17.6875
17.6875
17.6875
17.625
17.625
17.625
17.75
17.75
17.625
17.5625
17.75
17.8125
17.75
17.625
17.625
17.6875
17.5625
17.5
17.625
17.75
17.75
17.6875
17.6875
17.75
17.6875
17.625
17.6875
17.875
18.0
18.0625
18.1875
18.3125
18.4375
18.5625
18.6875
18.75
18.8125
18.875
18.9375
19.0625
19.125
19.0625
19.0625
19.25
19.375
19.1875
19.125
19.25
19.4375
19.4375
19.3125
19.25
19.3125
19.375
19.4375
19.375
19.375
19.4375
19.5
19.375
19.375
19.375
19.3125
19.3125
19.25
19.1875
19.25
19.375
19.375
19.375
19.375
19.25
19.25
19.375
19.3125
19.1875
19.25
19.25
19.1875
19.125
19.1875
19.1875
19.1875
19.25
19.3125
19.1875
19.0625
19.0625
19.1875
19.25
19.25
19.125
18.875
18.9375
19.1875
19.1875
19.0625
19.0625
19.1875
19.1875
19.0625
19.0625
19.0625
19.0625
19.0625
19.0625
19.0
18.9375
18.9375
19.0
19.0625
19.125
19.0
18.9375
19.0
19.125
18.9375
18.875
18.9375
19.0
18.875
18.875
18.9375
19.0
19.0
18.9375
18.875
18.8125
18.875
18.875
18.8125
18.8125
18.875
18.875
18.6875
18.75
19.0
19.0
18.875
18.8125
18.8125
18.8125
18.875
18.8125
18.75
18.8125
18.875
18.75
18.6875
18.75
18.875
18.75
18.6875
18.6875
18.75
18.75
18.75
18.75
18.75
18.75
18.75
18.75
18.6875
18.6875
18.8125
18.875
18.75
18.6875
18.6875
18.8125
18.8125
18.75
18.6875
18.6875
18.6875
18.75
18.75
18.625
18.5625
18.75
18.875
18.6875
18.5
18.5625
18.75
18.625
18.5625
18.625
18.6875
18.6875
18.6875
18.75
18.625
18.5
18.625
18.6875
18.625
18.625
18.6875
18.6875
18.625
18.625
18.625
18.625
18.625
18.625
18.625
18.5625
18.5
18.5625
18.625
18.5625
18.5625
18.625
18.625
18.5625
18.625
18.6875
18.8125
18.9375
19.0625
19.0625
19.0625
19.125
19.25
19.1875
19.1875
19.3125
19.375
19.375
19.4375
19.5
19.4375
19.375
19.3125
19.25
19.3125
19.375
19.375
19.3125
19.375
19.5625
19.5
19.375
19.3125
19.375
19.375
19.3125
19.3125
19.25
19.25
19.3125
19.3125
19.3125
19.3125
19.375
19.375
19.4375
19.375
19.3125
19.3125
19.3125
19.125
19.0625
19.125
19.1875
19.1875
19.1875
19.1875
19.25
19.25
19.25
19.25
19.1875
19.1875
19.125
19.0625
19.125
19.25
19.125
19.0625
19.0625
19.1875
19.125
19.0625
19.0625
19.1875
19.125
19.0
18.9375
19.0
18.9375
18.9375
18.9375
19.0
19.0
19.0
19.0
19.0625
19.125
19.0
18.875
18.9375
19.0625
18.9375
18.875
18.875
18.9375
18.9375
19.0
18.9375
18.875
18.875
19.0
18.9375
18.875
18.875
18.875
18.75
18.8125
18.875
18.75
18.75
18.9375
18.9375
18.875
18.875
19.0
18.875
18.8125
18.8125
18.875
18.75
18.6875
18.75
18.8125
18.875
18.8125
18.875
18.875
18.8125
18.8125
18.8125
18.6875
18.6875
18.75
18.6875
18.6875
18.6875
18.8125
18.875
18.75
18.75
18.75
18.8125
18.75
18.6875
18.625
18.8125
18.875
18.75
18.5625
18.5625
18.6875
18.75
18.625
18.625
18.75
18.75
18.625
18.6875
18.8125
18.625
18.4375
18.5625
18.6875
18.6875
18.6875
18.6875
18.6875
18.6875
18.8125
18.75
18.625
18.6875
18.625
18.5
18.5625
18.6875
18.625
18.5
18.5625
18.75
18.6875
18.5625
18.5625
18.6875
18.6875
18.5625
18.4375
18.625
18.75
18.625
18.625
18.6875
18.75
18.5625
18.5
18.625
18.75
18.625
18.4375
18.5
18.625
18.5625
18.5
18.5625
18.75
18.6875
18.5
18.5625
18.75
18.625
18.5
18.625
18.625
18.5625
18.5625
18.625
18.4375
18.4375
18.625
18.6875
18.5
18.5
18.5
18.625
18.625
18.5
18.4375
18.5
18.5625
18.5
18.4375
18.5625
18.625
18.5
18.4375
18.5
18.5
18.4375
18.4375
18.5625
18.5625
18.5
18.5625
18.5625
18.5
18.5
18.5625
18.625
18.5625
18.5625
18.5
18.4375
18.3125
18.3125
18.5
18.6875
18.6875
18.75
18.6875
18.375
18.25
18.3125
18.5
18.4375
18.3125
18.375
18.4375
18.375
18.1875
18.3125
18.4375
18.3125
18.25
18.5625
18.625
18.3125
18.375
18.75
18.8125
18.5625
18.3125
18.1875
17.9375
17.9375
18.375
18.8125
18.9375
18.75
18.125
17.75
17.9375
18.4375
18.625
18.375
18.1875
18.375
18.5625
18.3125
18.125
18.25
18.4375
18.4375
18.5625
18.625
18.6875
18.6875
18.625
18.5625
18.4375
18.4375
18.4375
18.4375
18.4375
18.4375
18.375
18.3125
18.25
18.3125
18.375
18.375
18.4375
18.5
18.5
18.5
18.5
18.625
18.625
18.4375
18.3125
18.5625
18.625
18.375
18.125
18.1875
18.3125
18.3125
18.375
18.4375
18.4375
18.4375
18.4375
18.375
18.375
18.4375
18.4375
18.25
18.25
18.4375
18.5625
18.4375
18.375
18.375
18.4375
18.3125
18.25
18.3125
18.375
18.3125
18.3125
18.4375
18.375
18.25
18.25
18.375
18.375
18.3125
18.3125
18.375
18.3125
18.3125
18.375
18.4375
18.4375
18.375
18.375
18.5
18.5
18.4375
18.25
18.375
18.8125
18.6875
18.1875
18.0
18.1875
18.25
18.1875
18.375
18.5
18.5
18.25
18.0
18.0
18.125
18.3125
18.375
18.375
18.375
18.4375
18.4375
18.375
18.375
18.4375
18.5
18.375
18.1875
18.125
18.125
18.1875
18.25
18.25
18.25
18.25
18.4375
18.5
18.375
18.3125
18.375
18.375
18.375
18.4375
18.5
18.375
18.3125
18.4375
18.375
18.25
18.25
18.375
18.1875
18.125
18.1875
18.1875
18.1875
18.25
18.4375
18.4375
18.375
18.4375
18.375
18.25
18.25
18.375
18.4375
18.4375
18.4375
18.3125
18.1875
18.125
18.3125
18.25
18.125
18.125
18.3125
18.3125
18.1875
18.25
18.375
18.3125
18.3125
18.3125
18.4375
18.375
18.3125
18.25
18.25
18.25
18.25
18.3125
18.3125
18.25
18.25
18.1875
18.125
18.125
18.25
18.25
18.25
18.3125
18.375
18.3125
18.3125
18.4375
18.3125
18.25
18.25
18.3125
18.25
18.25
18.3125
18.375
18.25
18.25
18.25
18.3125
18.25
18.25
18.25
18.25
18.25
18.3125
18.1875
18.0625
18.125
18.25
18.25
18.1875
18.25
18.25
18.25
18.375
18.3125
18.125
18.25
18.3125
18.1875
18.125
18.25
18.1875
18.0
18.1875
18.375
18.3125
18.1875
18.25
18.1875
18.1875
18.25
18.25
18.125
18.1875
18.3125
18.25
18.125
18.125
18.1875
18.25
18.25
18.25
18.1875
18.25
18.25
18.125
18.1875
18.25
18.1875
18.125
18.1875
18.3125
18.3125
18.25
18.25
18.25
18.1875
18.1875
18.1875
18.25
18.25
18.25
18.25
18.25
18.1875
18.125
18.125
18.25
18.3125
18.1875
18.125
18.25
18.375
18.25
18.125
18.125
18.1875
18.0625
18.0625
18.125
18.25
18.1875
18.1875
18.1875
18.1875
18.125
18.125
18.125
18.125
18.25
18.25
18.125
18.125
18.25
18.25
18.125
18.125
18.1875
18.25
18.1875
18.0
18.0
18.1875
18.375
18.25
18.0625
18.0625
18.1875
18.0625
18.0625
18.1875
18.25
18.125
18.125
18.25
18.25
18.0625
18.125
18.1875
18.0625
18.0625
18.125
18.25
18.125
18.125
18.1875
18.1875
18.1875
18.25
18.1875
18.0625
18.125
18.125
18.0625
18.0
18.125
18.25
18.1875
18.125
18.1875
18.25
18.1875
18.1875
18.25
18.1875
18.125
18.125
18.1875
18.125
18.0
18.0
18.125
18.25
18.1875
18.125
18.0625
18.125
18.0
18.0
18.0
18.1875
18.25
18.1875
18.25
18.4375
18.4375
18.1875
18.0625
18.0625
18.0625
18.0625
18.0625
18.0625
18.125
18.125
18.0625
18.0625
17.9375
17.875
18.0625
18.25
18.25
18.25
18.25
18.375
18.3125
18.1875
18.125
18.25
18.3125
18.125
17.875
17.875
18.0
18.0625
17.9375
17.875
17.9375
18.125
18.1875
18.0625
18.125
18.25
18.1875
18.125
18.125
18.125
18.125
18.1875
18.25
18.125
17.9375
18.0
18.0625
18.0
17.9375
18.0625
18.1875
18.125
18.125
18.1875
18.1875
18.1875
18.1875
18.125
18.0625
18.125
18.125
18.125
18.125
18.25
18.1875
18.0
18.0625
18.1875
18.0625
18.0
18.1875
18.25
18.0625
18.0
18.125
18.125
18.0625
18.0
18.125
18.1875
18.125
18.125
18.1875
18.125
18.0625
18.0625
18.0625
18.0625
18.0625
18.0625
18.0625
18.125
18.125
18.0
18.0
18.0625
18.0625
18.0
18.0625
18.0625
17.9375
17.875
17.875
18.0
18.0625
18.0625
18.125
18.375
18.625
18.1875
17.75
18.125
18.5
18.0625
17.5625
17.8125
18.25
18.375
17.8125
17.625
18.3125
18.5625
17.8125
17.4375
18.0
18.3125
18.0625
18.0625
18.375
18.4375
18.125
17.9375
17.9375
18.0
18.0625
18.125
18.0625
18.0625
18.0625
18.0
18.0
18.125
18.0625
18.0
18.0625
18.1875
18.1875
18.0625
18.0625
18.1875
18.0625
18.0625
18.0625
18.0625
18.0
18.0625
18.0625
17.9375
17.9375
18.0
18.125
18.1875
18.25
18.25
18.1875
18.25
18.25
18.125
17.9375
17.8125
17.9375
18.1875
18.125
18.0
18.125
18.0625
17.8125
17.8125
17.9375
17.9375
17.9375
18.0625
18.0625
18.0
18.0
18.0625
18.0625
18.125
18.1875
18.1875
18.1875
18.1875
18.125
18.0625
18.0625
18.125
18.0
17.9375
18.0
18.125
18.0
17.9375
18.0
18.125
18.0
17.9375
17.9375
17.9375
17.9375
18.125
18.1875
18.125
18.125
18.1875
18.1875
17.9375
17.9375
18.0
18.0
17.9375
17.9375
18.0
18.0625
18.125
18.0625
18.0625
18.125
18.125
18.0625
18.0
18.0
18.0
18.0
18.0
17.875
17.8125
18.1875
18.375
18.125
18.0625
18.125
18.0
17.875
18.0625
18.25
18.125
17.875
17.875
18.0
18.125
18.125
18.0625
18.0625
18.0625
17.9375
17.9375
17.9375
18.0
18.0625
17.9375
17.9375
18.0625
18.125
18.0
18.0
18.0625
18.0625
18.125
18.125
18.0
18.0
18.0
18.0625
17.875
17.9375
18.125
18.125
18.0
18.0
18.1875
18.0625
17.9375
18.0
18.1875
18.0625
17.875
17.875
18.0
18.0
18.0
18.125
18.25
18.125
18.0
18.0
18.0625
18.0
18.0
18.0
18.0
18.125
18.0625
17.9375
17.75
17.75
17.75
17.875
18.0625
18.25
18.3125
18.125
17.9375
18.0625
18.375
18.4375
18.0625
17.625
17.6875
18.125
18.25
17.875
17.6875
18.0625
18.25
17.875
17.625
17.875
17.9375
17.75
17.8125
18.1875
18.1875
17.9375
17.9375
18.0625
18.0625
17.9375
17.875
17.8125
17.9375
18.25
18.375
18.25
18.125
18.125
18.0
17.9375
18.0
17.9375
17.8125
17.9375
18.125
17.875
17.625
17.6875
17.9375
17.9375
17.875
18.0
18.125
18.125
17.9375
17.75
18.1875
18.625
18.5
18.0
17.875
18.0
17.8125
17.625
17.875
18.375
18.4375
18.125
17.75
17.625
17.6875
17.8125
17.9375
18.0
18.0
17.9375
17.9375
18.1875
18.3125
18.125
18.0
18.0625
18.0
17.8125
17.75
17.8125
17.9375
17.9375
17.9375
17.875
17.875
17.9375
17.9375
17.875
17.9375
18.0625
18.0
18.0
18.0625
18.125
18.0625
17.9375
17.8125
17.75
17.875
17.9375
17.9375
18.0
18.0625
17.9375
17.9375
18.0
17.9375
17.875
17.875
18.0
18.125
18.3125
18.5
18.3125
17.875
17.875
18.125
17.9375
17.75
17.8125
17.9375
18.0
17.875
17.625
17.6875
17.8125
17.6875
17.75
18.0625
18.125
17.75
17.6875
17.875
17.9375
17.9375
18.0
17.9375
17.8125
17.8125
17.875
17.9375
17.8125
17.6875
17.75
17.875
18.0625
18.0
17.9375
17.9375
18.0625
18.1875
18.125
17.9375
17.8125
17.875
18.0
18.0
17.8125
17.75
17.8125
17.75
17.625
17.75
17.8125
17.6875
17.6875
17.9375
17.875
17.75
17.875
17.9375
18.0
18.0
17.8125
17.6875
17.75
17.875
17.8125
17.9375
18.0625
18.0
17.875
18.0
18.1875
18.0625
17.8125
17.75
17.875
17.75
17.8125
18.0625
18.1875
18.125
17.9375
17.8125
17.6875
17.6875
17.75
17.8125
17.6875
17.6875
17.75
17.8125
17.8125
17.9375
18.0625
18.0625
18.0625
18.1875
18.125
18.0
17.8125
17.75
17.6875
17.75
17.75
17.6875
17.75
17.8125
17.6875
17.6875
17.8125
17.875
17.8125
17.875
17.9375
17.875
17.8125
18.0
18.0625
17.9375
17.8125
18.0625
18.3125
18.25
18.1875
18.0
17.625
17.5625
17.8125
17.9375
17.9375
17.9375
18.0625
18.1875
18.3125
18.0625
17.5
17.5
17.875
17.875
17.75
17.75
17.875
17.8125
17.6875
17.5625
17.75
18.0
18.0
17.8125
17.625
17.75
17.875
17.9375
18.0
17.875
17.75
17.6875
17.75
17.875
18.0625
18.1875
18.0625
17.875
17.875
17.75
17.5625
17.5625
17.6875
17.8125
17.75
17.75
17.875
17.9375
17.9375
17.875
17.875
17.875
18.0
18.1875
18.25
18.125
17.875
17.5625
17.5625
17.75
17.875
17.8125
17.8125
17.9375
18.0625
18.1875
18.0625
17.9375
17.6875
17.75
17.875
17.9375
17.875
17.875
17.9375
18.0
17.875
17.75
17.8125
17.8125
17.8125
17.8125
17.75
17.75
17.75
17.75
17.75
17.875
17.8125
17.6875
17.75
17.9375
17.9375
17.75
17.75
17.875
17.8125
17.75
17.8125
17.875
17.875
17.875
17.9375
17.9375
18.0
18.0625
18.0
18.0625
18.1875
17.9375
17.6875
17.4375
17.5
17.8125
18.1875
18.0
17.5
17.625
18.0
17.875
17.625
17.8125
18.0
17.6875
17.3125
17.4375
17.75
17.8125
17.6875
17.75
17.875
17.9375
17.9375
17.9375
17.8125
17.6875
17.75
17.8125
17.8125
17.875
17.9375
17.8125
17.6875
17.75
17.875
17.8125
17.75
17.875
18.125
18.125
17.9375
17.9375
17.9375
17.75
17.6875
17.875
17.8125
17.75
17.9375
18.0
17.8125
17.75
17.75
17.75
17.5625
17.5
17.75
17.8125
17.6875
17.75
18.0625
18.125
18.0625
18.3125
18.25
17.9375
17.875
18.0625
17.875
17.625
17.6875
17.875
17.875
17.6875
17.6875
17.75
17.625
17.5625
17.625
17.875
18.0625
18.0625
17.9375
17.875
17.875
17.875
17.875
17.875
17.9375
18.0
17.9375
17.875
17.9375
18.0
17.875
17.8125
17.8125
17.75
17.5625
17.5625
17.6875
17.9375
17.8125
17.6875
17.6875
17.875
17.9375
17.875
17.8125
17.875
17.875
17.75
17.6875
17.875
17.9375
17.8125
17.8125
18.0
18.0
17.75
17.6875
17.8125
17.8125
17.8125
17.875
17.875
17.8125
17.75
17.875
17.9375
17.9375
18.0625
18.25
18.25
17.875
17.5
17.375
17.625
17.875
18.0625
17.9375
17.75
17.8125
17.8125
17.5625
17.6875
18.0
18.1875
17.9375
17.75
17.8125
17.75
17.5
17.5625
17.8125
17.875
17.8125
17.875
17.9375
18.0625
18.1875
18.125
17.875
17.6875
17.625
17.5625
17.5625
17.625
17.6875
17.6875
17.75
17.875
17.9375
17.9375
18.0625
18.1875
18.0
17.6875
17.6875
17.75
17.75
17.9375
18.0625
17.9375
17.875
17.9375
17.875
17.6875
17.625
17.625
17.5625
17.5625
17.6875
17.8125
17.875
18.0
18.125
18.0625
17.9375
17.9375
17.875
17.75
17.6875
17.6875
17.625
17.625
17.625
17.6875
17.75
17.8125
17.875
17.875
17.9375
17.9375
17.9375
17.9375
17.9375
17.9375
17.8125
17.6875
17.6875
17.75
17.75
17.8125
17.8125
17.875
18.0
17.9375
17.75
17.6875
17.6875
17.625
17.5625
17.5625
17.8125
18.0
18.125
18.0625
17.8125
17.8125
18.0
17.9375
17.6875
17.5625
17.6875
17.75
17.6875
17.6875
17.875
18.125
18.125
17.8125
17.625
17.8125
17.8125
17.625
17.5625
17.625
17.8125
17.9375
17.875
17.875
18.0
18.0625
17.875
17.75
17.75
17.6875
17.625
17.5625
17.5625
17.75
17.875
17.9375
17.9375
18.125
18.3125
18.125
17.8125
17.8125
17.9375
17.875
17.6875
17.6875
17.75
17.875
17.875
17.6875
17.75
17.875
17.875
17.625
17.6875
17.9375
18.0
17.875
17.75
17.8125
17.9375
17.75
17.625
17.6875
17.875
17.9375
18.0625
18.1875
18.0
17.75
17.625
17.5625
17.5
17.6875
17.875
17.9375
17.875
17.8125
17.9375
17.875
17.6875
17.625
17.8125
17.875
17.6875
17.6875
17.8125
17.6875
17.625
17.75
17.8125
17.8125
17.8125
17.9375
18.0
17.9375
17.8125
17.6875
17.6875
17.75
17.75
17.6875
17.6875
17.8125
17.875
17.875
17.9375
18.0
17.875
17.8125
17.8125
17.875
17.8125
17.75
17.75
17.8125
17.8125
17.8125
17.8125
17.8125
17.8125
17.8125
17.9375
17.875
17.8125
17.8125
17.8125
17.75
17.6875
17.625
17.6875
17.8125
17.8125
17.8125
17.875
18.0
17.875
17.6875
17.6875
17.75
17.8125
17.75
17.625
17.5625
17.75
18.0
17.9375
17.8125
17.875
18.0
17.875
17.6875
17.6875
17.75
17.6875
17.6875
17.75
17.75
17.6875
17.875
18.0625
17.9375
17.625
17.5625
17.6875
17.75
17.75
17.8125
17.875
17.9375
18.0
17.875
17.8125
17.875
17.9375
17.9375
18.125
17.9375
17.4375
17.25
17.625
17.9375
17.875
17.6875
17.8125
18.125
17.875
17.3125
17.4375
18.0
17.8125
17.0
16.875
17.5
17.875
17.875
17.75
18.0
18.25
18.125
17.8125
17.875
18.125
18.1875
18.0
18.0
18.0625
17.875
17.75
17.8125
18.0
17.875
17.625
17.5625
17.6875
17.625
17.625
17.75
17.75
17.375
17.0
17.4375
18.0
18.1875
18.0
18.0
18.0625
18.125
18.0625
17.875
17.8125
17.9375
18.0
17.8125
17.625
17.6875
17.875
18.0625
18.0625
17.8125
17.4375
17.5
17.8125
18.0
17.8125
17.625
17.6875
17.8125
17.75
17.6875
17.6875
17.625
17.6875
17.75
17.6875
17.75
17.875
17.9375
17.75
17.75
17.875
17.75
17.5
17.625
17.8125
17.8125
17.625
17.75
17.9375
18.0
17.9375
17.9375
18.0
17.875
17.8125
17.75
17.75
17.8125
17.75
17.75
17.8125
17.875
17.75
17.6875
17.75
17.875
17.75
17.625
17.5625
17.75
17.875
17.75
17.75
17.9375
17.9375
17.75
17.6875
17.6875
17.8125
17.875
17.9375
17.875
17.8125
17.75
17.6875
17.6875
17.8125
17.9375
17.8125
17.6875
17.6875
17.75
17.75
17.8125
17.9375
17.8125
17.6875
17.8125
17.9375
17.8125
17.75
17.75
17.8125
17.8125
17.75
17.625
17.625
17.6875
17.8125
17.8125
17.75
17.75
17.8125
17.875
17.75
17.75
17.75
17.875
18.0
17.875
17.75
17.75
17.75
17.75
17.6875
17.625
17.625
17.6875
17.8125
17.875
17.8125
17.75
17.75
17.875
17.8125
17.75
17.75
17.8125
17.875
17.8125
17.625
17.625
17.625
17.6875
17.625
17.625
17.5625
17.5625
17.5625
17.625
17.5
17.5
17.5625
17.75
17.8125
17.8125
17.8125
17.875
17.875
17.75
17.6875
17.75
17.8125
17.6875
17.5625
17.75
17.875
17.9375
17.8125
17.75
17.8125
17.875
17.5625
17.375
17.5
17.75
17.8125
17.6875
17.6875
17.6875
17.75
17.6875
17.625
17.625
17.6875
17.6875
17.625
17.6875
17.75
17.8125
17.75
17.625
17.6875
17.8125
17.75
17.625
17.6875
17.75
17.6875
17.6875
17.625
17.5625
17.5625
17.6875
17.75
17.75
17.8125
17.875
17.8125
17.8125
17.9375
18.0
17.875
17.75
17.625
17.5
17.4375
17.4375
17.5
17.5625
17.8125
18.0625
18.1875
18.375
18.625
18.6875
18.6875
18.75
18.8125
18.8125
18.6875
18.5625
18.8125
19.0625
18.9375
19.0
19.25
19.375
19.25
19.1875
19.3125
19.3125
19.3125
19.4375
19.4375
19.5
19.6875
19.8125
19.6875
19.625
19.5
19.3125
19.1875
19.3125
19.25
19.25
19.375
19.5
19.4375
19.4375
19.5625
19.4375
19.375
19.4375
19.375
19.3125
19.3125
19.25
19.125
19.125
19.1875
19.125
19.0625
19.125
19.0625
19.0
18.9375
18.9375
19.0
19.0625
19.0
19.0625
19.1875
19.125
18.9375
18.9375
19.125
19.25
19.375
19.4375
19.5
19.625
19.125
18.5625
18.6875
19.125
19.5
19.4375
18.75
18.25
18.8125
19.375
19.125
18.75
18.8125
19.0625
19.0625
18.8125
18.4375
18.3125
18.5625
18.875
19.125
19.25
19.1875
19.0
18.8125
19.0625
19.1875
18.9375
18.625
18.6875
19.0625
19.25
19.1875
19.0
19.0
19.125
19.125
18.9375
18.875
19.0
18.9375
18.6875
18.6875
18.875
19.0
18.875
18.8125
18.875
18.8125
18.625
18.625
18.6875
18.8125
18.9375
18.8125
18.6875
18.6875
18.875
19.0
18.875
18.75
18.8125
19.0625
19.1875
19.0
18.6875
18.5625
18.5625
18.5
18.5
18.625
18.8125
18.875
18.6875
18.5
18.5625
18.6875
18.625
18.625
18.75
18.8125
18.6875
18.6875
18.75
18.8125
18.75
18.625
18.5625
18.5625
18.6875
18.75
18.75
18.8125
18.8125
18.625
18.5625
18.6875
18.8125
18.625
18.5
18.6875
18.75
18.5
18.4375
18.75
18.875
18.8125
18.9375
19.0625
18.9375
18.9375
19.1875
19.375
19.25
19.0625
19.0625
19.1875
19.25
19.3125
19.375
19.4375
19.375
19.375
19.4375
19.4375
19.3125
19.25
19.25
19.3125
19.3125
19.375
19.4375
19.375
19.375
19.4375
19.375
19.3125
19.25
19.1875
19.25
19.25
19.3125
19.25
19.25
19.375
19.375
19.25
19.25
19.3125
19.3125
19.25
19.25
19.25
19.25
19.25
19.25
19.25
19.1875
19.125
19.125
19.125
19.1875
19.125
19.125
19.125
19.125
19.0625
19.0625
19.0625
19.125
19.1875
19.0625
18.9375
19.0
19.1875
19.125
18.9375
19.0
19.125
19.0
18.9375
19.0
19.0
19.0
19.0625
19.0625
18.9375
18.9375
19.0
19.0
19.0
19.0625
19.0625
18.9375
18.8125
18.875
18.9375
18.8125
18.75
18.875
18.9375
18.8125
18.75
18.8125
18.875
19.0
18.875
18.625
18.5625
18.75
18.8125
18.6875
18.8125
19.0
18.875
18.6875
18.8125
19.0
18.9375
18.6875
18.75
18.875
18.75
18.6875
18.8125
18.8125
18.8125
18.8125
18.875
18.8125
18.75
18.8125
18.75
18.625
18.6875
18.8125
18.6875
18.625
18.75
18.9375
18.875
18.8125
18.8125
18.8125
18.6875
18.6875
18.75
18.625
18.625
18.625
18.6875
18.6875
18.625
18.625
18.6875
18.625
18.5
18.375
18.5
18.6875
18.625
18.5
18.5625
18.75
18.6875
18.4375
18.5
18.6875
18.6875
18.5625
18.5625
18.625
18.625
18.625
