0
43.9375
43.1875
42.375
41.625
40.875
40.0625
39.375
38.6875
38.125
37.5625
37.0625
36.75
36.375
36.0625
37.25
45.625
67.25
93.375
109.5
116.5625
117.75
111.375
100.5
88.9375
78.25
69.1875
61.8125
56.25
52.9375
51.0
49.75
49.25
48.9375
48.625
48.3125
47.875
47.375
46.875
46.3125
45.6875
44.8125
43.9375
43.0625
42.0625
41.25
40.375
39.625
38.9375
38.25
37.625
37.0
36.4375
35.875
35.375
35.0
35.25
39.4375
54.75
80.0625
100.125
109.3125
112.25
107.5
97.375
86.6875
76.5625
67.625
60.375
54.8125
51.1875
49.3125
48.3125
47.75
47.4375
47.1875
46.8125
46.375
45.8125
45.1875
44.5
43.75
43.0
42.25
41.5
40.75
40.0625
39.4375
38.875
38.375
37.875
37.4375
37.125
36.875
36.6875
36.75
36.6875
36.625
37.75
44.4375
62.9375
87.625
104.375
110.8125
110.5625
103.3125
93.125
83.0
73.625
65.625
59.25
54.75
51.9375
50.4375
49.6875
49.25
49.0
48.875
48.8125
48.5
48.0625
47.5
46.9375
46.3125
45.4375
44.625
43.875
43.125
42.375
41.625
40.9375
40.1875
39.4375
38.625
37.8125
37.1875
36.5625
36.0625
35.75
35.9375
39.25
52.9375
78.1875
101.5
113.9375
120.0
119.0
110.0625
98.375
86.5625
75.9375
67.0
60.0
55.1875
52.5
50.875
50.0
49.5
49.0
48.5
48.0
47.375
46.75
46.125
45.375
44.625
43.8125
43.0
42.25
41.5
40.6875
39.875
39.1875
38.5
37.9375
37.3125
36.75
36.25
35.75
35.25
34.8125
34.75
37.8125
51.0625
75.375
95.6875
104.75
107.375
103.6875
94.6875
84.375
74.6875
66.1875
59.1875
53.6875
50.1875
48.375
47.25
46.75
46.5
46.3125
46.0625
45.875
45.625
45.4375
45.0625
44.75
44.5
44.0625
43.6875
43.3125
42.8125
42.3125
41.8125
41.1875
40.4375
39.8125
39.1875
38.625
38.1875
37.6875
37.3125
37.0
37.75
44.25
62.75
88.0625
106.4375
115.1875
116.6875
110.1875
99.8125
88.75
78.125
69.0625
61.8125
56.25
52.75
50.875
50.0
49.5
49.1875
48.9375
48.625
48.25
47.625
47.125
46.4375
45.75
45.0
44.25
43.375
42.5
41.6875
40.9375
40.25
39.625
39.0625
38.5625
38.125
37.625
37.0625
36.5625
36.125
36.0625
39.125
53.0
79.5625
104.0
116.4375
122.4375
121.4375
113.0625
101.5625
89.4375
78.625
69.8125
62.5
57.125
53.9375
52.0
50.8125
50.0625
49.625
49.25
48.8125
48.25
47.4375
46.6875
45.875
45.0
44.125
43.25
42.5
41.8125
41.1875
40.4375
39.6875
38.9375
38.25
37.5625
37.0
36.375
35.875
35.4375
35.0625
34.875
37.0
48.5
73.125
96.3125
108.1875
113.5
111.0625
101.8125
91.125
80.9375
71.5625
63.8125
58.0
54.0625
52.0
50.875
50.4375
50.3125
50.25
50.125
49.75
49.375
48.8125
48.1875
47.5625
46.8125
45.9375
44.9375
44.125
43.375
42.6875
42.0
41.4375
40.9375
40.375
39.8125
39.1875
38.5625
38.0
37.5625
37.25
38.25
46.0
66.5
92.75
111.0625
120.4375
122.875
116.875
106.3125
94.125
82.5625
72.8125
64.8125
58.9375
55.1875
53.0625
51.8125
51.3125
50.875
50.5
50.125
49.625
48.9375
48.25
47.5
46.625
45.8125
45.0625
44.3125
43.4375
42.625
41.875
41.0
40.25
39.625
39.0
38.4375
37.9375
37.4375
36.9375
36.375
36.0
37.4375
47.0625
70.0
95.0625
108.6875
114.1875
113.3125
104.6875
93.5
82.6875
72.625
64.1875
57.4375
52.5
49.8125
48.5
47.8125
47.5
47.5
47.3125
47.0625
46.6875
46.1875
45.5625
45.0
44.1875
43.3125
42.5625
41.75
40.9375
40.3125
39.625
38.9375
38.3125
37.625
36.875
36.375
36.0
35.5625
35.3125
35.0
34.9375
36.8125
46.6875
68.8125
92.1875
105.25
109.9375
107.875
99.4375
88.9375
78.8125
69.6875
62.125
56.25
52.25
50.125
49.125
48.75
48.5625
48.5
48.5625
48.5
48.125
47.8125
47.25
46.5
45.9375
45.25
44.3125
43.5625
42.6875
41.875
41.1875
40.625
40.0
39.4375
39.0
38.625
38.125
37.6875
37.3125
36.9375
38.375
47.3125
69.1875
95.5
112.5
120.4375
121.5625
114.25
103.3125
91.5
80.3125
70.625
62.75
56.875
53.125
51.0625
50.0625
49.6875
49.625
49.5625
49.375
49.0
48.5625
48.0
47.1875
46.4375
45.625
44.75
44.0
43.3125
42.5625
41.75
40.9375
40.0625
39.375
38.875
38.3125
37.8125
37.375
37.0
36.625
36.8125
41.125
57.0625
83.5
104.5
114.25
117.75
113.0
102.5
91.0625
80.1875
70.5
62.5625
56.625
52.9375
50.8125
49.75
49.25
49.0
48.75
48.5
48.125
47.625
47.25
46.625
45.75
44.9375
44.0
43.125
42.375
41.5625
40.8125
40.125
39.5
38.875
38.125
37.5625
36.9375
36.4375
36.0
35.625
35.4375
36.8125
45.125
66.125
91.5625
107.125
113.5625
113.5
105.625
94.125
82.75
72.5625
63.9375
57.3125
52.5
49.875
48.625
48.1875
47.8125
47.125
46.9375
47.0
46.75
46.5
45.875
45.125
44.3125
43.75
43.0625
42.25
41.6875
41.125
40.375
39.875
39.5625
38.9375
38.375
37.875
37.375
37.25
37.0
36.6875
37.375
42.75
59.5625
84.5
103.4375
112.75
115.5625
109.875
99.1875
87.8125
77.3125
68.0
60.4375
55.5
52.1875
50.1875
49.0
48.625
48.625
48.5
48.375
48.25
47.625
47.0625
46.5
45.625
44.9375
44.0625
43.3125
42.75
41.9375
41.375
40.75
40.125
39.75
38.75
37.6875
37.3125
37.0
36.5
36.1875
36.9375
43.625
63.6875
91.0625
110.5625
120.0625
123.875
119.375
108.5
96.5
85.0625
74.4375
65.75
59.4375
55.75
52.75
50.75
50.75
50.5625
49.625
49.125
49.0
48.875
48.1875
47.125
46.4375
45.625
44.875
44.25
43.375
42.0625
41.1875
40.5625
39.9375
39.375
38.875
37.9375
37.25
37.1875
36.8125
36.125
36.6875
42.4375
60.125
85.3125
103.1875
112.0
114.6875
108.9375
98.25
87.625
77.5625
68.9375
62.125
56.5625
52.625
50.875
49.8125
49.375
49.25
48.9375
48.5625
48.25
48.0625
47.5
46.6875
46.0625
45.1875
44.25
43.6875
43.1875
42.4375
41.4375
40.75
40.375
39.8125
39.0
38.375
38.25
37.9375
37.3125
37.1875
39.75
50.75
73.75
99.5
116.25
124.1875
124.3125
115.625
104.25
92.8125
81.125
70.1875
61.875
56.5625
53.0625
51.0
50.125
49.625
49.3125
49.125
48.9375
48.6875
48.25
47.75
47.125
46.4375
45.75
44.9375
44.3125
43.6875
42.8125
42.0
41.1875
40.4375
39.8125
39.3125
38.875
38.4375
37.9375
37.5625
37.375
39.875
52.125
77.0
101.9375
115.8125
120.4375
117.125
107.0625
95.125
83.875
74.125
66.0625
59.6875
55.3125
52.8125
51.1875
50.1875
49.625
49.125
48.75
48.375
47.9375
47.25
46.5625
45.875
45.1875
44.3125
43.5
42.6875
41.875
41.125
40.5
39.8125
39.25
38.625
38.0625
37.5
36.875
36.3125
36.0625
36.1875
38.875
51.125
75.625
99.75
113.875
119.6875
117.25
107.6875
95.8125
84.1875
73.875
65.4375
58.9375
54.5625
52.125
50.75
50.0
49.5625
49.3125
49.0625
48.6875
48.25
47.75
47.1875
46.5625
45.9375
45.3125
44.625
43.9375
43.25
42.5625
41.9375
41.375
40.75
40.1875
39.6875
39.3125
39.0
38.625
38.25
38.3125
41.5625
55.5
81.8125
106.375
118.9375
122.0625
116.9375
106.25
94.25
82.9375
73.0625
65.125
59.0625
55.125
52.875
51.5
50.6875
50.375
50.0625
49.75
49.4375
49.0
48.5
47.875
47.125
46.3125
45.5
44.625
43.625
42.8125
42.0625
41.3125
40.6875
40.125
39.5625
39.0
38.5
37.9375
37.375
36.9375
37.125
41.75
59.0625
87.9375
111.875
124.1875
129.875
126.5625
115.9375
103.375
90.9375
79.75
70.3125
62.8125
57.5
54.375
52.625
51.75
51.4375
51.25
51.125
50.8125
50.3125
49.6875
48.9375
48.125
47.25
46.3125
45.5
44.625
43.8125
43.0625
42.25
41.5625
40.8125
40.0625
39.375
38.875
38.375
37.9375
37.5625
37.3125
38.25
45.6875
66.5625
94.3125
113.125
121.5
122.125
113.9375
101.8125
89.5
78.3125
69.125
61.625
56.125
52.6875
50.9375
49.9375
49.4375
49.25
49.1875
49.0
48.5625
48.125
47.625
47.0
46.375
45.625
44.75
44.0
43.125
42.3125
41.5
40.75
40.0625
39.5625
39.0625
38.5
38.0
37.5
37.0
36.5625
36.3125
38.125
48.1875
71.0625
97.0
113.125
119.375
118.0
109.25
97.375
85.5625
74.875
66.0
59.0625
54.375
51.625
50.125
49.375
49.0
48.8125
48.5625
48.1875
47.8125
47.25
46.5625
45.875
45.1875
44.4375
43.6875
43.0
42.25
41.5625
40.75
40.0625
39.25
38.5625
37.875
37.375
36.875
36.5
36.125
35.75
35.625
37.25
47.0
70.0
95.75
110.4375
115.125
112.9375
103.8125
92.0625
81.0625
71.375
63.375
57.0625
52.75
50.3125
49.1875
48.625
48.5
48.6875
48.75
48.6875
48.5
48.125
47.625
47.0625
46.4375
45.625
44.8125
43.9375
43.0
42.125
41.375
40.6875
40.0
39.4375
38.9375
38.375
37.875
37.375
36.9375
36.5625
37.25
43.25
62.0625
90.3125
112.5
123.0625
125.75
119.9375
108.5
95.9375
83.9375
73.6875
65.1875
58.625
54.375
52.0625
50.875
50.3125
50.1875
50.1875
50.125
49.875
49.375
48.75
48.0625
47.25
46.4375
45.6875
44.8125
44.0625
43.3125
42.625
41.75
41.0
40.1875
39.4375
38.875
38.375
38.0
37.625
37.1875
37.125
39.5
51.5
77.0
103.625
118.75
124.8125
122.625
112.5
99.875
87.6875
77.0
68.125
61.0
55.9375
52.9375
51.375
50.5625
50.25
50.0
49.8125
49.625
49.3125
48.8125
48.25
47.5625
46.8125
46.0
45.125
44.1875
43.3125
42.4375
41.6875
41.0
40.375
39.75
39.1875
38.625
38.0625
37.4375
36.8125
36.5
37.6875
45.9375
67.5
94.125
112.125
120.625
120.875
113.0
101.5625
89.75
78.8125
69.4375
61.625
55.875
52.4375
50.5625
49.4375
49.0625
48.9375
48.875
48.75
48.4375
47.9375
47.3125
46.6875
45.875
45.0
44.125
43.375
42.625
41.875
41.1875
40.5
39.8125
39.1875
38.4375
37.9375
37.5
37.125
36.8125
36.5625
36.8125
41.0625
56.625
82.8125
105.3125
116.75
118.8125
112.4375
101.4375
90.0
79.3125
70.0625
62.4375
56.6875
53.25
51.3125
50.25
49.8125
49.5625
49.5
49.375
49.0
48.625
48.0625
47.5
46.875
46.1875
45.4375
44.6875
43.875
43.0
42.125
41.3125
40.625
40.0625
39.5625
39.0625
38.625
38.0625
37.6875
37.125
37.0625
40.4375
54.8125
82.0625
107.75
121.375
126.3125
122.8125
112.4375
99.9375
87.5
76.5
67.5
60.4375
55.5
52.75
51.25
50.5625
50.375
50.375
50.3125
50.125
49.8125
49.4375
48.875
48.0625
47.125
46.1875
45.25
44.375
43.5625
42.75
42.0625
41.4375
40.75
40.0625
39.375
38.75
38.25
37.9375
37.5
37.5
39.5625
50.5
75.125
103.0625
120.0625
126.625
124.9375
115.0
102.125
89.375
78.0
68.6875
61.4375
56.3125
53.3125
51.75
51.0
50.6875
50.4375
50.25
49.875
49.4375
48.875
48.1875
47.5
46.6875
45.875
45.125
44.25
43.4375
42.5625
41.6875
40.8125
40.125
39.4375
39.0
38.625
38.1875
37.75
37.3125
36.75
37.0625
42.1875
59.375
85.875
106.5
116.4375
118.125
111.0
99.25
87.375
76.6875
67.6875
60.5
55.1875
51.9375
50.25
49.3125
48.8125
48.6875
48.625
48.5
48.1875
47.875
47.5
46.9375
46.3125
45.4375
44.5625
43.75
43.0
42.375
41.75
41.25
40.75
40.1875
39.625
39.125
38.6875
38.3125
38.0
37.75
37.875
40.75
53.125
78.25
104.9375
120.8125
126.75
123.9375
113.4375
100.3125
87.75
76.75
67.8125
60.9375
56.25
53.625
52.25
51.6875
51.375
51.125
50.875
50.625
50.125
49.625
48.9375
48.25
47.4375
46.6875
45.875
45.125
44.3125
43.625
42.8125
42.0
41.25
40.625
39.9375
39.4375
39.0625
38.625
38.1875
37.8125
38.25
44.0
63.0625
92.0
115.0625
127.4375
131.0
124.3125
111.9375
98.5625
85.8125
75.0
66.4375
59.9375
55.875
53.5625
52.3125
51.8125
51.5
51.25
51.0
50.5
49.875
49.25
48.5625
47.6875
46.8125
45.875
44.8125
43.9375
43.125
42.25
41.5625
40.9375
40.25
39.6875
39.0
38.3125
37.75
37.3125
36.8125
36.5625
37.125
43.125
62.9375
91.5
113.0
124.625
127.6875
121.375
109.5625
96.6875
84.6875
74.25
65.75
59.125
54.875
52.6875
51.625
51.0625
50.9375
50.9375
50.75
50.4375
50.0625
49.375
48.75
48.125
47.375
46.75
46.125
45.5
44.8125
44.25
43.5625
42.875
42.3125
41.8125
41.25
40.8125
40.4375
39.875
39.375
39.1875
40.875
51.1875
75.25
102.625
120.375
128.4375
127.0
116.8125
103.5625
90.4375
79.1875
70.0
62.625
57.5
54.5625
53.0
52.1875
51.9375
51.75
51.5625
51.4375
51.125
50.4375
49.8125
49.125
48.1875
47.25
46.375
45.375
44.4375
43.6875
42.9375
42.3125
41.6875
41.125
40.5
40.0
39.375
38.8125
38.3125
37.9375
39.0
47.0625
69.6875
99.8125
121.25
132.125
134.875
128.5
117.375
104.5
91.875
80.625
71.125
63.6875
58.75
56.0625
54.4375
53.8125
53.625
53.3125
53.0625
52.75
52.125
51.4375
50.6875
49.8125
48.9375
48.0625
47.125
46.1875
45.4375
44.625
43.75
42.9375
42.0625
41.25
40.75
40.3125
39.75
39.4375
39.125
39.0
41.4375
53.5625
79.5625
106.5625
122.125
128.8125
126.9375
116.5625
103.625
90.9375
79.4375
69.9375
62.5
57.1875
54.25
52.875
52.1875
51.9375
51.875
51.6875
51.375
51.0
50.4375
49.8125
49.1875
48.5
47.75
46.8125
45.875
44.9375
44.0
43.1875
42.4375
41.75
41.1875
40.625
40.0
39.375
38.75
38.125
37.75
38.125
43.6875
62.375
91.0
113.375
125.1875
129.0625
123.3125
111.25
97.75
85.25
74.625
66.0
59.5625
55.5625
53.5
52.375
52.0
51.9375
51.8125
51.625
51.25
50.6875
50.0
49.1875
48.3125
47.4375
46.5
45.6875
44.9375
44.1875
43.4375
42.625
41.875
41.0625
40.25
39.625
39.125
38.625
38.25
37.875
37.6875
38.6875
46.375
67.9375
95.8125
115.0
124.375
125.3125
116.6875
103.75
91.0625
79.6875
70.375
63.0
57.8125
54.6875
53.0
52.125
51.6875
51.5
51.375
51.0625
50.625
50.25
49.6875
49.0625
48.4375
47.75
46.9375
46.0
45.0625
44.125
43.375
42.75
42.0
41.4375
40.9375
40.375
39.8125
39.1875
38.625
38.1875
38.8125
45.125
65.1875
95.0625
118.1875
129.5
132.9375
127.1875
115.125
101.8125
89.3125
78.5625
69.4375
62.375
57.625
55.0
53.5625
52.9375
52.8125
52.75
52.625
52.375
51.8125
51.25
50.4375
49.5625
48.625
47.625
46.75
45.8125
45.0
44.25
43.5
42.75
41.9375
41.1875
40.5625
40.0625
39.5
39.0
38.6875
38.6875
41.25
53.625
79.625
106.5
122.25
128.4375
125.6875
115.125
101.9375
89.0
77.6875
68.5
61.375
56.5
53.75
52.4375
51.9375
51.6875
51.5625
51.375
51.0625
50.625
50.0625
49.4375
48.75
48.0
47.25
46.4375
45.5
44.4375
43.4375
42.5625
41.75
41.0625
40.375
39.8125
39.3125
38.75
38.125
37.5
37.125
37.875
44.5625
64.8125
93.0625
113.5
123.375
125.0
117.3125
105.1875
92.625
80.9375
71.0625
63.125
57.1875
53.625
51.875
51.0
50.75
50.75
50.625
50.5
50.125
49.625
49.0625
48.375
47.5
46.625
45.75
44.875
44.0625
43.3125
42.625
41.875
41.1875
40.5
39.75
39.125
38.5625
38.125
37.875
37.6875
37.8125
40.75
53.9375
80.0625
105.9375
121.25
126.75
122.625
111.5
98.5
86.0
75.375
66.8125
60.25
55.9375
53.75
52.6875
52.3125
52.0625
51.8125
51.5625
51.1875
50.6875
50.0625
49.375
48.625
47.8125
47.0625
46.25
45.5
44.6875
43.75
42.9375
42.125
41.4375
40.8125
40.3125
39.875
39.4375
38.875
38.3125
38.375
42.5
58.875
87.375
112.4375
126.3125
131.375
127.5
116.8125
103.8125
90.9375
79.625
70.4375
63.1875
58.3125
55.625
54.25
53.6875
53.4375
53.25
53.0
52.625
52.0625
51.3125
50.5
49.625
48.6875
47.6875
46.6875
45.8125
45.0
44.1875
43.4375
42.75
42.0625
41.375
40.75
40.0625
39.5
39.0
38.625
39.0
43.8125
61.0625
89.6875
114.5
127.9375
132.5
127.5
115.4375
101.5625
88.375
77.0
67.6875
60.5
55.875
53.5
52.375
52.0625
52.0625
52.0625
51.875
51.5625
51.0625
50.375
49.625
48.8125
48.0
47.1875
46.375
45.5625
44.6875
43.75
42.875
41.9375
41.1875
40.5
39.9375
39.4375
38.9375
38.5625
38.125
37.875
39.875
50.9375
76.0625
102.75
118.75
125.1875
122.125
111.1875
98.375
86.125
75.3125
66.5625
59.875
55.5
53.1875
52.125
51.75
51.75
51.8125
51.75
51.625
51.3125
50.875
50.3125
49.6875
48.875
48.0
47.0
46.0
45.0625
44.1875
43.4375
42.6875
42.0625
41.5
41.0
40.375
39.75
39.25
38.8125
38.875
42.625
58.25
86.8125
113.125
128.5
135.5625
132.3125
121.125
107.625
93.9375
81.8125
71.8125
64.1875
59.25
56.5625
55.125
54.5625
54.375
54.1875
54.0
53.625
53.0625
52.3125
51.4375
50.5
49.5625
48.625
47.75
46.875
45.9375
45.1875
44.3125
43.5
42.625
41.8125
41.1875
40.6875
40.25
39.75
39.5
39.8125
44.5625
62.0625
91.5625
116.75
130.4375
135.125
129.75
117.875
104.3125
91.125
79.75
70.1875
62.8125
58.0625
55.5
54.1875
53.625
53.5
53.375
53.0625
52.5625
51.9375
51.25
50.5625
49.8125
48.875
48.0625
47.0625
46.0625
45.0625
44.0625
43.1875
42.5
42.0
41.375
40.75
40.125
39.5625
38.9375
38.3125
38.3125
41.5625
56.25
84.3125
109.8125
123.5625
128.8125
124.75
113.4375
100.625
88.1875
77.25
68.3125
61.3125
56.6875
54.3125
53.0625
52.5625
52.4375
52.25
52.0625
51.75
51.3125
50.75
50.125
49.5
48.8125
48.25
47.75
47.3125
46.875
46.375
45.9375
45.375
44.75
44.0625
43.3125
42.75
42.25
41.8125
41.4375
41.6875
46.3125
63.4375
92.375
118.125
133.0
138.9375
134.6875
123.125
109.1875
95.4375
83.5625
73.75
66.25
61.3125
58.75
57.625
57.1875
57.0625
57.0625
56.875
56.5
55.875
55.125
54.1875
53.25
52.375
51.4375
50.375
49.375
48.4375
47.5625
46.75
46.125
45.5625
44.9375
44.3125
43.6875
43.0
42.375
42.0
42.6875
49.8125
71.25
101.375
124.8125
138.0
142.75
137.8125
126.375
112.375
98.5625
86.25
76.125
68.375
63.4375
60.6875
59.3125
58.875
58.875
58.875
58.625
58.125
57.5
56.6875
55.5625
54.3125
52.9375
51.625
50.3125
49.0
47.75
46.4375
45.1875
43.9375
42.875
41.9375
41.1875
40.6875
40.4375
40.0625
39.6875
39.9375
43.9375
59.75
87.0625
110.3125
122.9375
127.1875
121.9375
110.125
96.8125
84.4375
73.9375
65.5
59.25
55.5625
53.75
52.875
52.625
52.5625
52.375
52.125
51.75
51.1875
50.3125
49.4375
48.5625
47.4375
46.0625
45.125
44.1875
43.25
42.8125
42.4375
42.0
41.75
41.5625
41.6875
41.9375
42.25
42.75
43.0625
44.1875
50.6875
68.3125
94.25
116.375
128.375
130.0625
122.3125
110.3125
97.75
86.0
76.25
68.6875
63.0
59.875
58.5625
58.625
59.125
59.375
59.4375
59.0625
58.6875
58.4375
57.5625
57.1875
56.8125
55.625
55.125
55.0
54.0
52.4375
51.0
49.9375
49.375
50.3125
50.6875
49.5
49.0625
48.4375
47.3125
46.5
48.3125
58.5625
79.8125
103.8125
121.5
130.25
130.125
121.75
109.4375
96.75
85.1875
75.1875
66.625
60.9375
58.5625
57.6875
57.25
57.25
56.75
56.6875
56.9375
56.8125
56.125
55.25
54.0625
52.6875
51.1875
49.6875
48.25
47.125
46.125
45.25
44.5
43.625
42.8125
42.125
41.5625
40.9375
40.3125
39.8125
39.5625
39.8125
43.625
58.0625
83.125
104.8125
115.9375
118.875
113.0
101.5625
89.75
79.0625
70.0
62.6875
57.1875
54.0
52.5625
51.875
51.6875
51.6875
51.625
51.375
51.0
50.5
49.875
49.1875
48.5625
47.8125
46.9375
46.0
45.125
44.1875
43.375
42.6875
42.0625
41.5625
41.0625
40.5625
39.9375
39.3125
38.75
38.3125
38.25
40.4375
51.3125
74.4375
98.6875
113.0625
118.375
114.875
105.0625
93.6875
82.5625
72.625
64.5
58.375
54.625
52.625
51.6875
51.375
51.25
51.25
51.125
50.8125
50.3125
49.6875
48.875
48.125
47.25
46.3125
45.4375
44.6875
43.9375
43.125
42.25
41.4375
40.6875
40.0
39.5
38.875
38.4375
37.875
37.4375
37.0
37.0
41.1875
57.25
83.5625
104.625
114.6875
117.25
111.3125
100.4375
89.0
78.1875
69.0
61.5625
56.125
52.8125
51.1875
50.4375
50.125
49.9375
49.8125
49.4375
49.0
48.5
47.875
47.0625
46.25
45.4375
44.5
43.5625
42.8125
42.0625
41.375
40.625
40.0
39.25
38.5
37.9375
37.4375
37.0625
36.6875
36.4375
36.125
36.3125
40.5
56.75
84.0
105.75
116.75
120.6875
115.3125
104.125
92.5
81.1875
71.3125
63.375
57.5
53.6875
51.875
51.0
50.5625
50.4375
50.3125
50.125
49.875
49.625
49.125
48.6875
48.3125
47.75
47.1875
46.5625
45.8125
45.0625
44.4375
43.6875
42.9375
42.25
41.5
40.75
40.1875
39.6875
39.25
38.8125
38.5625
39.125
45.1875
64.125
91.75
113.0
123.9375
127.9375
124.0625
113.8125
101.25
88.9375
78.1875
69.3125
62.375
57.75
55.3125
53.875
53.3125
52.875
52.5
52.25
51.8125
51.25
50.625
49.8125
49.0
48.125
47.125
46.1875
45.3125
44.25
43.3125
42.4375
41.625
41.0
40.5
39.9375
39.5
39.0625
38.5625
38.0
37.5625
38.1875
44.5
64.625
93.4375
114.75
125.8125
130.3125
126.0625
115.5625
103.0625
90.5
79.25
69.875
62.6875
57.8125
55.0625
53.5625
52.875
52.5625
52.25
51.9375
51.5
50.9375
50.1875
49.375
48.5
47.5625
46.625
45.75
44.75
44.0
43.25
42.375
41.4375
40.625
39.9375
39.375
38.875
38.5
38.0625
37.75
37.375
37.5
41.5625
57.3125
84.25
106.4375
116.9375
120.375
115.8125
105.125
93.125
81.5625
71.625
63.625
57.625
53.8125
51.75
50.6875
50.1875
49.875
49.625
49.3125
48.9375
48.5
48.0
47.375
46.6875
45.875
45.0625
44.1875
43.3125
42.5625
41.8125
41.1875
40.5625
39.8125
39.1875
38.5
37.875
37.375
37.0625
36.625
36.375
36.5
39.3125
51.625
76.0
99.375
111.5625
115.8125
113.5625
104.5625
93.0625
81.875
71.9375
63.6875
57.375
53.0625
50.625
49.375
48.8125
48.5625
48.375
48.125
47.75
47.3125
46.8125
46.1875
45.5
44.75
43.875
43.125
42.25
41.375
40.5625
39.875
39.125
38.4375
37.9375
37.375
36.75
36.1875
35.6875
35.25
34.875
34.8125
36.75
46.6875
69.1875
93.3125
106.6875
111.875
110.8125
102.9375
92.25
81.5
71.8125
63.6875
57.125
52.5625
50.0
48.75
48.0625
47.75
47.5
47.3125
47.0625
46.625
46.1875
45.5625
44.875
44.25
43.625
43.0
42.375
41.6875
41.0625
40.4375
39.875
39.3125
38.8125
38.375
38.125
37.8125
37.4375
37.1875
36.9375
36.8125
38.3125
47.0625
68.125
93.0625
109.375
116.9375
116.8125
109.1875
98.3125
86.9375
76.5625
67.875
60.75
55.4375
52.3125
50.5625
49.625
49.1875
49.0625
48.9375
48.6875
48.3125
47.875
47.3125
46.625
45.9375
45.1875
44.5
43.6875
43.0
42.25
41.4375
40.6875
39.8125
39.125
38.5625
38.125
37.625
37.1875
36.8125
36.4375
36.25
37.875
47.9375
71.75
98.3125
114.625
122.6875
123.6875
116.125
104.5
92.125
80.5625
70.8125
62.875
56.9375
53.375
51.4375
50.4375
50.0625
49.9375
49.75
49.5
49.1875
48.8125
48.25
47.5625
46.8125
45.9375
44.9375
44.0
43.1875
42.4375
41.6875
41.0
40.3125
39.5625
38.9375
38.3125
37.75
37.1875
36.8125
36.4375
36.25
37.5625
45.875
67.25
93.3125
109.75
116.875
117.375
109.8125
98.625
87.25
76.5625
67.4375
60.0625
54.625
51.375
49.625
48.75
48.3125
48.1875
48.0
47.75
47.375
46.9375
46.4375
45.8125
45.25
44.5625
43.8125
42.9375
42.0
41.1875
40.4375
39.75
39.0625
38.5
38.0
37.4375
36.8125
36.3125
35.8125
35.5
35.1875
35.25
38.1875
51.125
75.6875
97.9375
109.9375
114.875
111.3125
101.1875
89.8125
79.0625
69.8125
62.1875
56.0625
51.8125
49.5
48.5
48.0625
48.0
48.0625
48.125
48.125
47.9375
47.5625
47.125
46.6875
46.0625
45.375
44.6875
44.0
43.1875
42.25
41.4375
40.6875
39.9375
39.375
38.8125
38.375
38.0
37.5
36.9375
36.5625
36.75
40.875
56.5625
83.125
105.9375
117.4375
121.875
118.4375
108.6875
97.0625
85.25
74.75
66.1875
59.5
54.9375
52.4375
51.0625
50.375
50.0625
49.875
49.75
49.5
49.0625
48.5
47.875
47.125
46.25
45.4375
44.625
43.8125
43.0625
42.375
41.625
40.9375
40.1875
39.5
38.875
38.3125
37.875
37.5
37.125
36.875
37.3125
42.6875
61.1875
89.3125
110.25
120.1875
123.875
118.625
107.5625
95.375
83.4375
73.1875
64.875
58.5
54.375
52.0625
50.8125
50.3125
50.125
49.9375
49.625
49.25
48.8125
48.25
47.625
46.9375
46.0625
45.0625
44.125
43.1875
42.25
41.5
40.75
40.0625
39.5625
38.9375
38.3125
37.6875
37.1875
36.6875
36.3125
36.125
36.5625
41.3125
58.0
84.5
105.6875
116.0625
119.0625
113.8125
103.125
91.625
80.75
71.1875
63.375
57.1875
53.1875
51.0625
49.875
49.25
48.9375
48.75
48.625
48.3125
48.0
47.5
46.875
46.25
45.5625
44.8125
44.0
43.125
42.375
41.625
40.9375
40.25
39.8125
39.3125
38.9375
38.5
38.125
37.8125
37.5625
37.4375
38.75
46.4375
66.9375
93.125
110.8125
119.5
121.25
114.5625
103.6875
92.0
81.0625
71.6875
64.0625
58.125
54.3125
52.25
51.125
50.625
50.375
50.25
50.0625
49.75
49.3125
48.6875
48.0
47.25
46.4375
45.6875
45.0
44.25
43.5
42.6875
41.8125
41.0
40.3125
39.6875
39.1875
38.75
38.3125
37.9375
37.5625
37.5625
41.6875
57.875
85.5625
109.1875
121.9375
127.5625
124.25
114.1875
101.875
89.5
78.3125
68.9375
61.625
56.625
53.8125
52.25
51.5625
51.375
51.3125
51.25
50.875
50.4375
49.875
49.25
48.5625
47.6875
46.6875
45.8125
44.875
44.0625
43.1875
42.4375
41.6875
40.9375
40.125
39.4375
38.75
38.125
37.625
37.1875
36.9375
37.5625
43.5625
62.4375
89.5
109.1875
118.9375
121.3125
114.6875
103.375
91.4375
80.0
70.3125
62.5625
56.625
52.9375
51.1875
50.4375
50.0625
49.9375
49.8125
49.6875
49.375
48.875
48.3125
47.625
46.8125
46.0
45.1875
44.25
43.3125
42.4375
41.6875
41.0
40.375
39.8125
39.25
38.6875
38.125
37.625
37.125
36.6875
36.375
37.125
43.5625
63.125
89.4375
107.5
116.6875
119.3125
113.25
102.1875
90.5625
79.625
70.1875
62.5625
56.9375
53.5
51.8125
51.0625
50.8125
50.75
50.8125
50.625
50.3125
49.8125
49.1875
48.5625
47.8125
47.0
46.25
45.5
44.6875
43.875
43.0625
42.3125
41.5
40.8125
40.25
39.8125
39.4375
38.9375
38.5
38.0
37.8125
39.9375
51.6875
77.3125
104.3125
120.3125
127.6875
127.125
118.5
106.5
93.8125
82.125
72.1875
64.125
58.4375
55.125
53.3125
52.4375
52.0625
52.0
51.875
51.5625
51.1875
50.6875
49.9375
49.125
48.1875
47.3125
46.375
45.5
44.6875
43.9375
43.25
42.5
41.75
41.0
40.3125
39.75
39.25
38.8125
38.4375
38.125
38.4375
42.625
58.75
86.5
109.9375
121.9375
127.1875
123.5625
112.75
100.3125
88.0
77.125
68.1875
61.125
56.3125
53.75
52.4375
51.9375
51.75
51.5625
51.375
50.9375
50.4375
49.6875
48.9375
48.25
47.4375
46.5625
45.375
44.3125
43.5625
42.875
42.125
41.4375
40.625
40.25
39.875
39.5
38.8125
38.25
37.6875
37.375
38.5625
46.3125
67.1875
93.625
111.5625
120.0625
121.25
114.5625
103.4375
91.5625
80.75
71.25
63.4375
58.3125
54.4375
52.0625
52.1875
52.6875
52.5625
52.0625
51.0
51.1875
50.75
49.8125
49.4375
48.6875
47.875
47.0625
46.0
45.125
44.375
43.1875
42.3125
41.625
41.0625
40.5
40.1875
38.9375
38.6875
39.375
38.6875
38.875
40.5625
50.125
72.75
96.6875
110.75
117.875
118.75
112.1875
101.6875
91.125
81.1875
72.25
65.125
60.1875
57.625
56.0625
55.125
54.6875
54.9375
55.375
54.3125
54.0
53.5625
52.375
51.0625
49.6875
48.75
48.1875
47.4375
46.625
46.5
46.4375
45.25
43.9375
43.4375
43.0625
42.375
41.375
40.375
39.625
39.25
40.6875
49.375
75.1875
114.8125
145.1875
153.0
147.9375
135.875
118.125
100.0
84.9375
72.3125
61.5625
55.0625
53.625
53.375
53.0
53.1875
53.5
54.0
54.125
53.6875
53.0625
52.75
52.25
51.3125
50.25
49.3125
48.3125
47.1875
46.125
45.25
44.375
43.75
42.9375
42.4375
41.75
40.9375
40.375
39.8125
39.4375
40.0
46.125
65.0625
91.75
110.5
119.125
121.75
117.0
107.1875
95.9375
84.6875
74.8125
66.875
61.0625
57.5
55.625
54.5
54.0
53.75
53.3125
52.8125
52.1875
51.4375
50.6875
50.0
49.0625
48.125
47.1875
46.3125
45.5
44.625
43.625
42.75
41.9375
41.25
40.75
40.25
39.6875
39.1875
38.8125
38.375
38.25
40.0
50.3125
74.0
98.4375
110.875
115.1875
114.0
106.4375
95.4375
84.4375
74.8125
66.75
60.5
56.4375
54.1875
53.0625
52.4375
52.125
51.9375
51.625
51.25
50.875
50.5
49.9375
49.3125
48.5625
47.6875
46.9375
46.25
45.5625
44.875
44.125
43.5625
42.875
42.125
41.5
40.9375
40.5
40.125
39.875
39.5625
40.6875
49.125
71.125
98.0
114.4375
121.9375
124.125
118.5625
107.6875
95.5625
84.3125
74.5625
66.5
60.875
57.4375
55.5
54.625
54.125
53.75
53.4375
53.125
52.625
51.75
51.0
50.1875
49.375
48.5
47.4375
46.4375
45.5625
44.6875
43.8125
43.25
42.625
41.9375
41.375
40.75
40.125
39.5
38.9375
38.5625
39.3125
46.3125
67.3125
95.375
113.9375
123.5
128.25
125.75
116.0625
103.5
91.75
81.3125
72.1875
65.3125
60.875
58.125
56.6875
55.875
55.3125
54.6875
53.8125
53.0
52.125
51.125
50.125
49.0
48.1875
47.3125
46.3125
45.375
44.625
43.6875
42.8125
42.0625
41.3125
40.5625
40.0625
39.5
39.0
38.5
38.1875
37.875
39.125
48.0625
70.3125
95.6875
109.5
114.9375
115.0625
108.0625
97.75
86.9375
77.1875
68.875
62.0
57.25
54.4375
52.75
51.625
51.125
51.0625
50.5
49.9375
49.625
49.0625
48.3125
47.5625
47.125
46.0625
45.0625
44.5
43.8125
43.3125
42.8125
42.125
41.625
41.0625
40.6875
40.375
39.8125
39.5625
39.3125
39.0
39.25
43.25
58.5
85.0625
107.0
116.75
120.3125
117.0625
108.125
97.3125
86.3125
76.4375
68.1875
61.75
57.75
55.625
54.5
53.9375
53.5
53.1875
52.6875
52.0
51.375
50.5625
49.6875
48.75
47.75
46.875
46.0
45.0625
44.125
43.25
42.4375
41.75
41.1875
40.5625
40.0625
39.6875
39.25
38.6875
38.3125
38.1875
40.875
54.0
80.25
104.5625
117.0
122.6875
121.6875
113.75
103.0
91.625
81.0
72.0625
64.6875
59.75
56.9375
55.1875
54.3125
53.875
53.4375
52.9375
52.4375
51.8125
51.0625
50.25
49.375
48.3125
47.3125
46.4375
45.4375
44.625
43.875
43.0625
42.375
41.6875
40.875
40.1875
39.625
39.0625
38.5625
38.125
37.9375
38.625
45.3125
65.125
91.5625
108.5
115.125
116.0
110.3125
100.125
89.1875
79.375
70.8125
63.5625
58.3125
55.1875
53.5
52.5
52.0625
51.6875
51.375
50.8125
50.25
49.5
48.75
48.0
47.1875
46.3125
45.375
44.5
43.4375
42.6875
41.875
41.25
40.5625
40.0625
39.5625
39.0
38.4375
38.0
37.625
37.3125
37.375
39.75
51.25
75.0625
98.375
110.4375
115.1875
113.0
104.5
93.9375
83.6875
74.5
66.6875
60.6875
56.625
54.375
53.25
52.625
52.1875
51.75
51.4375
50.875
50.1875
49.4375
48.6875
47.8125
47.0625
46.1875
45.4375
44.6875
43.8125
43.0625
42.375
41.625
41.0
40.4375
40.0
39.5625
39.0
38.5
38.0
37.8125
40.4375
53.0
78.5
103.0
115.8125
121.8125
120.3125
111.375
100.25
89.25
79.0
70.1875
63.0625
58.0
55.25
53.6875
52.9375
52.625
52.5
52.25
51.875
51.3125
50.5625
49.8125
48.9375
48.0
47.125
46.25
45.4375
44.625
43.8125
43.125
42.3125
41.5625
40.875
40.25
39.6875
39.25
38.875
38.4375
38.25
39.8125
49.1875
72.0
97.625
112.0625
117.4375
116.3125
108.25
97.0
86.0625
76.25
67.9375
61.375
56.9375
54.375
52.875
52.1875
51.75
51.375
51.0
50.5625
49.9375
49.3125
48.625
47.9375
47.125
46.1875
45.3125
44.4375
43.5625
42.8125
42.125
41.4375
40.875
40.1875
39.5625
38.9375
38.375
37.8125
37.5
37.25
37.8125
43.125
61.0
87.8125
107.125
115.375
117.0625
111.25
100.75
89.5625
79.125
70.1875
62.75
57.5
54.375
52.75
51.9375
51.6875
51.5
51.25
50.875
50.375
49.75
49.1875
48.5625
47.8125
47.125
46.375
45.625
44.8125
44.0625
43.375
42.75
42.25
41.75
41.25
40.75
40.1875
39.625
39.125
38.75
39.1875
44.375
61.8125
88.9375
109.9375
119.8125
122.75
117.9375
107.75
96.1875
85.0
75.1875
67.0625
60.9375
56.9375
54.8125
53.875
53.4375
53.1875
53.0
52.625
52.125
51.5
50.75
49.9375
49.0
48.0625
47.1875
46.375
45.5
44.6875
43.8125
42.9375
42.1875
41.5
40.9375
40.4375
39.9375
39.5625
39.125
38.6875
39.0
44.0
62.3125
91.1875
112.9375
122.6875
125.875
121.8125
112.125
100.3125
88.5
78.0625
69.5625
63.0625
58.9375
56.625
55.3125
54.6875
54.3125
53.875
53.375
52.8125
52.1875
51.375
50.5
49.625
48.75
47.875
47.0
46.0
45.125
44.25
43.5
42.875
42.1875
41.625
41.0
40.375
39.875
39.4375
39.0
39.0625
42.9375
58.375
85.75
108.5625
119.4375
123.5
120.4375
111.125
99.625
88.25
77.8125
69.125
62.375
58.0625
55.625
54.4375
53.875
53.625
53.25
52.875
52.3125
51.75
51.125
50.25
49.3125
48.375
47.625
46.6875
45.8125
44.8125
43.875
43.0625
42.3125
41.75
41.1875
40.6875
40.1875
39.75
39.125
38.5625
38.375
40.4375
51.8125
76.75
101.5
114.1875
119.875
119.125
110.6875
99.3125
87.8125
77.5625
68.8125
61.9375
57.1875
54.625
53.4375
53.0
52.75
52.5625
52.25
51.875
51.4375
50.875
50.125
49.3125
48.4375
47.5
46.625
45.8125
45.0625
44.375
43.6875
43.0625
42.5625
41.9375
41.25
40.5625
40.0
39.5625
39.25
39.125
41.0
51.4375
75.625
101.9375
116.6875
122.625
122.4375
114.75
103.375
92.25
81.9375
73.0
65.75
60.4375
57.1875
55.5
54.5
53.9375
53.625
53.3125
52.8125
52.25
51.625
50.875
50.0
49.125
48.3125
47.4375
46.5625
45.5625
44.75
43.9375
43.25
42.5625
42.0625
41.4375
40.875
40.3125
39.8125
39.3125
39.125
41.4375
53.625
79.875
105.8125
120.4375
128.5625
129.375
121.75
110.1875
97.5625
86.0
76.0625
67.9375
62.0
58.5625
56.625
55.625
55.125
54.875
54.5
53.9375
53.3125
52.625
51.75
50.8125
49.75
48.6875
47.75
46.75
45.9375
45.125
44.3125
43.4375
42.625
41.875
41.1875
40.625
40.0625
39.6875
39.25
38.875
39.375
45.625
66.0
94.125
112.375
120.8125
123.75
118.375
107.3125
95.375
84.625
75.25
67.4375
61.8125
58.5
56.625
55.375
54.625
54.0625
53.5
52.875
52.1875
51.4375
50.75
49.9375
49.0625
48.1875
47.3125
46.375
45.5
44.75
44.0
43.3125
42.625
42.0625
41.4375
40.8125
40.3125
39.8125
39.4375
39.0
38.9375
40.875
52.0625
78.0
104.75
120.0
128.5
129.8125
122.8125
111.5625
99.4375
88.125
78.0625
69.75
63.625
59.8125
57.8125
56.6875
56.125
55.6875
55.25
54.75
54.125
53.4375
52.6875
51.8125
51.0
50.125
49.3125
48.4375
47.5
46.5
45.5625
44.6875
43.9375
43.25
42.6875
42.125
41.5625
41.0
40.4375
39.9375
40.3125
46.0625
66.0625
96.25
118.1875
129.25
134.4375
131.125
120.875
108.25
95.625
84.125
74.4375
66.75
61.4375
58.5
56.875
56.125
55.8125
55.5625
55.1875
54.5625
53.875
53.125
52.25
51.3125
50.375
49.375
48.375
47.375
46.5
45.625
44.8125
43.875
43.0625
42.375
41.75
41.1875
40.625
40.125
39.6875
39.3125
40.0625
47.0625
68.375
96.5
114.625
123.3125
125.75
119.4375
108.1875
96.125
84.6875
74.6875
66.5
60.4375
56.75
54.8125
53.8125
53.375
53.0625
52.8125
52.4375
51.875
51.3125
50.6875
49.9375
49.0625
48.125
47.1875
46.3125
45.4375
44.6875
43.9375
43.25
42.5
41.8125
41.125
40.4375
40.0
39.5
39.125
38.8125
38.5625
39.3125
46.0
66.8125
94.625
112.9375
121.5
123.5625
117.375
106.5625
95.0625
84.375
74.9375
67.0625
61.1875
57.5
55.5625
54.5
53.9375
53.625
53.375
53.0
52.5625
52.0
51.375
50.625
49.8125
48.9375
48.125
47.125
46.125
45.3125
44.5
43.8125
43.125
42.625
42.1875
41.625
41.0
40.4375
39.9375
39.5625
39.4375
41.875
54.125
80.9375
108.3125
122.75
130.5625
132.4375
125.3125
113.3125
100.3125
88.25
77.875
69.5625
63.5
59.9375
57.875
56.75
56.0625
55.5625
55.125
54.5625
53.9375
53.125
52.25
51.3125
50.375
49.4375
48.5625
47.625
46.8125
45.9375
45.0625
44.125
43.375
42.6875
42.125
41.5
41.0
40.5
39.9375
39.4375
39.25
41.9375
55.5
83.125
108.9375
122.625
129.875
129.6875
121.0625
109.0
96.5
84.875
74.8125
66.75
60.9375
57.5
55.625
54.625
54.125
53.75
53.3125
52.875
52.25
51.5625
50.8125
49.9375
49.0
47.9375
47.0
46.125
45.25
44.5
43.75
43.0
42.1875
41.375
40.6875
40.125
39.625
39.1875
38.75
38.375
38.0625
39.25
47.9375
70.75
97.1875
112.875
120.625
121.4375
114.0
102.5
90.8125
80.1875
71.0625
63.6875
58.5
55.5
54.0
53.1875
52.6875
52.375
52.0
51.5
50.875
50.1875
49.5
48.75
48.0625
47.25
46.5
45.6875
44.9375
44.3125
43.6875
43.125
42.625
42.1875
41.8125
41.375
41.0
40.5625
40.0625
39.875
39.625
40.0625
45.5625
64.4375
93.6875
115.8125
126.8125
130.75
125.8125
115.4375
103.5
91.5
80.75
71.75
64.4375
59.4375
56.5625
55.0625
54.375
54.0
53.8125
53.5625
53.125
52.6875
52.0625
51.25
50.4375
49.5
48.4375
47.4375
46.5625
45.75
45.0
44.3125
43.625
42.9375
42.125
41.375
40.8125
40.25
39.6875
39.4375
39.125
39.4375
44.1875
62.3125
92.375
116.3125
128.5
135.0625
133.8125
125.25
113.25
100.3125
88.0
77.1875
68.5625
62.5
58.9375
57.0625
56.25
55.875
55.4375
55.0
54.4375
53.625
52.75
51.875
50.875
49.8125
48.8125
47.625
46.5625
45.5625
44.5625
43.6875
42.875
42.1875
41.5625
41.0
40.3125
39.625
39.0625
38.5625
38.125
38.0625
40.0
50.875
76.125
102.5625
116.875
124.1875
124.625
116.25
104.3125
92.125
80.9375
71.5
63.6875
58.0625
54.75
53.25
52.5625
52.1875
52.0
51.6875
51.25
50.75
50.125
49.4375
48.625
47.75
46.9375
46.0625
45.0625
44.1875
43.375
42.5625
41.8125
41.3125
40.75
40.25
39.875
39.4375
39.0
38.6875
38.375
38.1875
38.6875
43.8125
61.75
89.6875
111.1875
121.9375
126.3125
122.125
111.875
99.75
87.9375
77.375
68.5625
61.8125
57.25
54.9375
53.8125
53.4375
53.1875
53.0625
52.8125
52.3125
51.6875
51.0
50.1875
49.3125
48.5
47.625
46.75
45.875
45.0
44.0625
43.25
42.5
41.75
41.0625
40.5625
40.0
39.5
39.125
38.6875
38.1875
38.25
41.9375
57.875
86.9375
111.3125
122.875
128.375
126.1875
116.75
104.6875
92.1875
80.625
70.75
62.75
57.0625
53.875
52.125
51.0625
50.5625
50.5
50.375
50.1875
50.0
49.875
49.75
49.5
49.0625
48.5625
48.125
47.5
46.8125
46.1875
45.5
44.6875
43.9375
43.0625
42.1875
41.5625
40.9375
40.375
40.0625
39.75
39.5
40.375
46.75
65.875
92.375
111.375
120.5625
122.0625
115.25
104.25
92.5625
81.5625
72.1875
64.75
59.4375
56.0625
54.3125
53.6875
53.25
52.5625
52.3125
52.4375
51.875
51.0625
50.3125
49.6875
49.3125
49.0
47.625
45.125
44.875
43.8125
43.3125
43.8125
42.4375
40.8125
39.125
38.0
37.625
37.0
37.25
37.6875
37.25
36.625
38.375
48.75
72.875
100.375
117.75
126.4375
127.25
119.5625
107.4375
94.375
82.6875
72.625
64.4375
58.6875
55.375
53.625
52.75
52.5
52.25
51.8125
51.375
50.8125
50.125
49.5
48.8125
47.9375
47.1875
46.3125
45.3125
44.25
43.1875
42.3125
41.5625
40.875
40.125
39.5625
39.0625
38.625
38.125
37.5625
37.125
36.75
36.5625
38.25
48.6875
73.0
98.3125
113.3125
121.125
120.1875
111.25
99.6875
88.0
77.5625
68.8125
61.75
56.5625
53.6875
52.375
51.6875
51.5
51.5
51.5
51.375
50.9375
50.375
49.75
49.0
48.125
47.25
46.5
45.625
44.75
43.875
42.875
41.9375
41.125
40.5
39.875
39.375
39.0
38.625
38.1875
37.8125
37.4375
38.4375
46.1875
67.9375
96.375
116.25
126.375
129.0
122.5625
111.0
98.0625
86.0625
75.75
67.1875
60.75
56.6875
54.375
53.0625
52.625
52.375
52.125
51.8125
51.4375
51.0625
50.4375
49.5625
48.625
47.625
46.6875
45.75
44.875
44.0625
43.375
42.5625
41.8125
41.0625
40.3125
39.6875
39.1875
38.875
38.5
38.125
37.8125
37.6875
39.5
49.875
73.8125
100.375
115.875
122.0
120.0
110.5625
98.5625
86.5
75.8125
67.125
60.25
55.5
52.875
51.5
50.875
50.6875
50.5625
50.375
50.0625
49.5625
49.0625
48.5
47.5
46.5
45.8125
44.8125
43.6875
42.75
41.9375
41.1875
40.5625
39.875
39.3125
38.6875
37.9375
37.1875
36.6875
36.125
35.6875
35.5
35.1875
36.625
45.4375
67.25
93.4375
110.375
118.3125
117.6875
108.5625
96.5625
84.5625
73.75
65.0625
58.1875
53.4375
50.8125
49.625
49.0625
48.8125
48.6875
48.5625
48.3125
48.0
47.5625
47.0625
46.4375
45.8125
45.125
44.3125
43.5
42.75
42.125
41.5625
41.0625
40.625
40.1875
39.625
39.125
38.6875
38.25
37.875
37.625
37.3125
37.0
37.125
40.0625
53.125
79.0625
104.75
119.0625
124.375
121.1875
110.75
98.3125
86.125
75.4375
66.6875
59.8125
55.125
52.625
51.3125
50.6875
50.375
50.25
50.125
49.875
49.4375
48.9375
48.3125
47.5
46.6875
45.75
44.875
43.875
42.9375
42.125
41.4375
40.8125
40.25
39.75
39.125
38.625
38.0625
37.5
36.9375
36.5
36.3125
36.125
37.3125
45.5
67.6875
96.4375
115.9375
125.625
127.9375
121.8125
110.9375
98.0
85.4375
74.8125
66.125
59.4375
55.3125
53.0
51.75
51.1875
50.9375
50.6875
50.3125
49.875
49.25
48.5625
47.8125
46.9375
46.0625
45.125
44.125
43.1875
42.1875
41.375
40.625
39.875
39.3125
38.75
38.125
37.5
37.0
36.5
36.0625
35.6875
35.375
35.1875
35.875
42.1875
61.6875
89.25
108.5625
117.125
118.3125
110.8125
99.25
87.5
76.875
67.9375
60.5625
55.0
51.625
49.75
48.75
48.25
48.0625
47.8125
47.5625
47.25
46.875
46.375
45.875
45.375
44.75
44.0625
43.375
42.625
41.9375
41.375
40.9375
40.5
40.125
39.6875
39.1875
38.6875
38.1875
37.875
37.4375
37.125
36.8125
36.4375
36.75
41.3125
57.75
84.5
107.125
118.0625
121.4375
116.5
105.75
93.9375
82.6875
72.6875
64.5625
58.25
53.75
51.25
49.8125
49.125
48.9375
48.8125
48.5625
48.375
48.0625
47.625
47.0625
46.375
45.625
44.75
43.875
43.0
42.1875
41.4375
40.6875
40.0625
39.5
38.875
38.25
37.625
37.0625
36.5625
36.125
35.875
35.5625
35.375
36.1875
42.9375
63.125
91.75
111.5625
120.9375
124.1875
118.5
107.5
94.875
82.9375
73.0
64.8125
58.5625
54.5625
52.375
51.125
50.4375
50.0
49.625
49.3125
48.8125
48.1875
47.5625
46.875
46.125
45.25
44.3125
43.375
42.5
41.75
41.0
40.3125
39.6875
39.125
38.5
37.875
37.25
36.6875
36.25
35.875
35.625
35.375
35.125
35.25
39.1875
54.625
81.0
102.875
113.125
116.0625
110.4375
99.875
88.5625
77.5625
68.25
60.9375
55.3125
51.6875
49.6875
48.6875
48.1875
48.0
47.875
47.6875
47.375
47.0
46.5625
46.0625
45.375
44.5
43.6875
42.9375
42.1875
41.5
40.8125
40.25
39.75
39.1875
38.625
38.125
37.625
37.1875
36.875
36.625
36.375
36.1875
35.9375
36.625
43.0625
62.0
88.9375
109.0625
118.375
119.6875
112.5625
101.375
89.75
78.875
69.625
62.125
56.3125
52.5
50.4375
49.375
48.875
48.6875
48.625
48.5
48.3125
47.9375
47.4375
46.8125
46.0625
45.25
44.375
43.5625
42.75
42.0625
41.4375
40.75
40.125
39.4375
38.6875
38.0625
37.5625
37.0625
36.625
36.3125
36.0625
35.75
36.0
40.1875
56.1875
83.75
107.5
120.75
126.25
122.1875
112.0
99.6875
87.375
76.75
67.75
60.625
55.6875
52.8125
51.25
50.5
50.1875
50.0
49.8125
49.5
49.125
48.6875
48.0625
47.3125
46.4375
45.625
44.6875
43.8125
43.0
42.1875
41.4375
40.625
39.9375
39.1875
38.4375
37.75
37.125
36.625
36.25
35.9375
35.6875
35.625
37.625
48.5
72.5
98.1875
113.375
119.8125
117.625
108.125
96.1875
84.3125
73.6875
65.0
58.1875
53.4375
50.875
49.4375
48.8125
48.625
48.5
48.4375
48.1875
47.8125
47.4375
47.0
46.375
45.6875
44.8125
43.875
43.0625
42.25
41.4375
40.75
40.0625
39.375
38.75
38.0625
37.5
37.0
36.5
36.25
35.875
35.625
35.375
36.375
44.0
64.875
91.5625
108.9375
116.9375
116.75
108.5
97.1875
85.75
75.3125
66.75
59.75
54.625
51.625
50.125
49.375
49.0625
49.0625
49.0625
48.9375
48.6875
48.3125
47.9375
47.4375
46.8125
46.125
45.375
44.625
43.9375
43.1875
42.5625
41.875
41.25
40.625
39.875
39.1875
38.625
38.1875
37.75
37.4375
37.1875
37.4375
41.625
57.5
85.375
109.6875
122.6875
128.0625
124.25
113.9375
101.25
88.5625
77.625
68.625
61.5625
56.6875
54.0
52.5625
51.875
51.5625
51.4375
51.3125
51.0
50.5625
50.0
49.375
48.5625
47.75
46.875
45.9375
44.9375
44.0
43.1875
42.4375
41.6875
41.0
40.375
39.875
39.25
38.75
38.25
37.8125
37.4375
37.4375
40.3125
53.5
80.4375
107.625
123.375
130.875
129.6875
120.6875
108.1875
95.0625
83.125
73.0
64.875
58.75
55.1875
53.375
52.625
52.5
52.4375
52.25
51.875
51.375
50.75
49.9375
49.1875
48.375
47.5
46.6875
45.75
44.75
43.8125
42.9375
42.1875
41.4375
40.75
40.125
39.5625
39.0
38.3125
37.8125
37.3125
37.0625
39.0
49.75
74.3125
101.1875
117.3125
124.8125
124.25
115.5625
103.5
91.0625
79.875
70.4375
62.875
57.1875
53.8125
52.125
51.3125
50.9375
50.875
50.8125
50.5
50.0625
49.5
48.8125
48.125
47.375
46.5625
45.8125
45.0625
44.25
43.3125
42.4375
41.6875
41.0
40.375
39.875
39.375
38.8125
38.375
38.0
37.5
37.125
37.8125
43.875
63.125
90.75
111.0625
121.25
122.6875
115.125
103.125
90.75
79.6875
70.5
63.125
57.625
54.25
52.5
51.5625
51.25
51.0625
50.9375
50.75
50.5625
50.25
49.75
49.1875
48.5625
47.8125
47.0625
46.375
45.625
44.75
44.0625
43.1875
42.375
41.6875
41.0625
40.5
40.125
39.625
39.125
38.75
38.375
39.25
47.375
70.0
99.375
120.0
130.0
130.75
123.375
111.6875
98.5625
86.375
76.0625
67.5
60.9375
56.875
54.6875
53.5625
53.1875
53.0
53.0
52.8125
52.5
51.9375
51.3125
50.5
49.5625
48.5625
47.6875
46.8125
45.875
45.125
44.3125
43.5
42.8125
42.0
41.25
40.625
40.125
39.625
39.25
39.0
38.6875
39.3125
46.0
67.0625
96.8125
118.25
129.4375
132.75
126.5625
115.0
101.6875
88.6875
77.75
69.0
62.375
58.125
55.9375
54.875
54.375
54.1875
54.0
53.625
53.1875
52.5
51.8125
50.9375
50.0625
49.0
47.9375
46.8125
45.8125
44.875
43.9375
43.1875
42.4375
41.6875
40.9375
40.1875
39.625
39.125
38.75
38.375
38.1875
38.4375
41.9375
56.9375
84.5
108.625
122.125
128.3125
124.625
114.0625
101.4375
88.75
77.625
68.5
61.3125
56.625
54.25
52.875
52.3125
52.1875
52.0625
51.875
51.5625
51.125
50.5
49.9375
49.1875
48.3125
47.375
46.5
45.5625
44.6875
43.875
43.0625
42.4375
41.8125
41.0625
40.375
39.8125
39.25
38.75
38.5
38.125
38.0625
40.4375
52.3125
78.25
105.0625
120.9375
128.625
127.1875
117.4375
104.9375
92.5625
81.375
71.8125
64.125
58.5625
55.3125
53.6875
53.0
52.6875
52.6875
52.5625
52.25
51.875
51.375
50.75
50.0625
49.3125
48.5
47.6875
46.8125
45.875
45.0625
44.375
43.75
43.125
42.5625
42.0
41.375
40.75
40.25
39.75
39.3125
39.125
41.0
51.9375
77.5625
106.0625
125.0
135.4375
135.875
128.125
115.875
102.0625
89.5
78.875
70.125
63.5
59.375
57.1875
56.0625
55.4375
55.0625
54.6875
54.375
53.875
53.1875
52.3125
51.375
50.4375
49.4375
48.5
47.5
46.5625
45.6875
44.8125
43.9375
43.1875
42.5
41.9375
41.4375
40.9375
40.4375
39.9375
39.375
39.0625
40.8125
51.5
77.375
106.8125
125.6875
136.0625
137.125
129.0625
116.875
103.1875
90.4375
79.4375
70.5
63.875
59.6875
57.3125
55.9375
55.375
55.0
54.5625
54.125
53.5625
52.75
51.875
51.0
50.0625
49.0625
48.0625
47.125
46.25
45.375
44.5
43.75
43.0
42.25
41.6875
41.1875
40.8125
40.5
40.0625
39.5
39.1875
39.6875
44.625
62.25
90.25
112.25
123.3125
126.5
120.4375
109.25
96.8125
85.0625
75.0
66.9375
61.0
57.5
55.5625
54.125
53.625
53.75
53.375
53.0625
52.375
51.1875
50.3125
49.8125
49.1875
48.1875
47.125
46.25
45.75
45.125
44.4375
43.6875
42.75
41.875
41.4375
41.25
40.0625
39.125
39.25
39.5
39.125
38.625
41.25
54.25
81.125
108.5
124.625
131.875
129.625
120.1875
108.0
94.4375
82.75
73.625
65.9375
60.4375
57.375
55.6875
54.9375
54.5625
54.3125
54.125
53.6875
53.3125
52.6875
52.125
51.375
50.4375
49.4375
48.5
47.5
46.5625
45.6875
44.9375
44.1875
43.5
42.6875
41.9375
41.25
40.625
40.0625
39.75
39.3125
39.5625
43.5625
59.8125
89.1875
116.4375
133.0
139.75
136.9375
127.875
114.75
100.75
88.125
77.1875
68.5625
62.625
59.25
57.5
56.6875
56.375
56.125
55.75
55.25
54.5625
53.6875
52.8125
51.9375
50.9375
49.9375
48.8125
47.625
46.6875
45.6875
44.8125
44.0
43.25
42.625
41.875
41.1875
40.5625
40.0
39.4375
39.0
39.125
42.5
57.125
85.1875
112.3125
128.4375
134.75
131.25
120.8125
107.375
93.6875
81.875
72.0625
64.4375
59.4375
56.6875
55.3125
54.6875
54.5
54.25
53.8125
53.3125
52.625
51.9375
51.125
50.25
49.375
48.4375
47.5
46.5
45.5
44.625
43.75
43.0
42.25
41.625
41.125
40.5625
39.9375
39.4375
39.0625
38.6875
38.5
39.875
48.8125
72.25
101.1875
120.5625
130.25
130.4375
121.6875
109.4375
96.375
84.4375
74.5
66.5
60.6875
57.3125
55.625
54.875
54.5625
54.375
54.125
53.75
53.1875
52.5
51.75
50.875
49.9375
49.0
48.0
47.0625
46.1875
45.3125
44.5
43.625
42.875
42.125
41.625
41.125
40.625
40.1875
39.75
39.1875
38.9375
40.5
50.625
75.75
105.8125
126.375
136.5
136.5625
127.875
114.8125
100.6875
88.25
77.75
69.0625
62.625
58.5625
56.375
55.3125
54.875
54.75
54.5
54.125
53.625
52.9375
52.125
51.25
50.25
49.25
48.375
47.4375
46.5
45.625
44.875
44.125
43.3125
42.5
41.75
41.125
40.625
40.1875
39.75
39.375
39.0
40.0
48.0
70.375
100.0625
121.125
131.5625
132.4375
123.5625
110.875
97.4375
85.0
74.625
66.375
60.4375
57.0
55.25
54.4375
54.125
53.875
53.6875
53.3125
52.6875
52.0
51.25
50.375
49.4375
48.4375
47.375
46.3125
45.375
44.5
43.6875
43.0
42.375
41.6875
41.0
40.3125
39.75
39.1875
38.8125
38.375
38.125
38.5625
43.5
60.9375
89.625
113.875
126.8125
129.4375
122.375
110.6875
97.625
85.0
74.5
66.125
59.6875
55.75
53.875
53.0
52.75
52.8125
52.75
52.5
52.125
51.625
51.0
50.3125
49.5625
48.875
48.1875
47.375
46.5
45.75
44.9375
44.25
43.625
43.0
42.375
41.8125
41.1875
40.5625
39.875
39.3125
38.875
38.9375
42.25
56.875
85.125
112.875
129.375
135.6875
132.125
121.75
108.5
95.0625
83.3125
73.5625
65.875
60.625
57.625
56.0625
55.3125
55.0625
54.6875
54.375
53.9375
53.3125
52.5
51.625
50.625
49.625
48.6875
47.75
46.8125
45.875
44.9375
44.0625
43.25
42.5
41.875
41.3125
40.8125
40.3125
39.875
39.375
38.8125
39.0
43.1875
60.1875
89.9375
116.5625
131.4375
137.4375
133.75
123.5
110.25
96.625
84.625
74.5625
66.5
60.8125
57.625
55.875
55.0625
54.75
54.5
54.1875
53.6875
53.0625
52.25
51.4375
50.4375
49.375
48.3125
47.25
46.25
45.3125
44.5
43.75
42.875
42.125
41.3125
40.6875
40.1875
39.6875
39.25
38.875
38.4375
38.375
41.25
54.625
81.625
108.3125
124.0
129.6875
124.75
113.3125
100.75
88.3125
77.4375
68.5625
61.625
56.875
54.25
52.9375
52.4375
52.3125
52.25
52.0
51.625
51.0625
50.375
49.6875
48.875
47.875
46.875
45.9375
45.0
44.1875
43.4375
42.6875
42.0625
41.4375
40.75
40.1875
39.6875
39.1875
38.8125
38.5625
38.3125
38.5
41.1875
53.6875
80.5
109.0625
126.875
133.8125
130.6875
120.1875
106.9375
93.25
81.375
71.5
63.9375
58.625
55.875
54.5625
54.0
53.875
53.75
53.5625
53.25
52.625
52.0
51.1875
50.25
49.25
48.375
47.3125
46.3125
45.3125
44.4375
43.5625
42.8125
42.125
41.625
41.0625
40.5
39.875
39.25
38.75
38.375
38.9375
44.9375
64.625
95.25
120.25
133.625
137.875
132.875
121.5
107.375
94.0
82.25
72.5625
64.9375
60.0
57.25
55.8125
55.1875
54.9375
54.625
54.25
53.75
53.0
52.1875
51.25
50.25
49.3125
48.3125
47.4375
46.625
45.625
44.625
43.75
42.9375
42.1875
41.4375
40.9375
40.4375
39.9375
39.375
38.8125
38.375
39.0625
46.0
67.1875
96.375
117.875
128.75
129.6875
121.3125
108.75
95.5
83.125
72.8125
64.5625
58.4375
54.9375
53.1875
52.3125
52.0625
52.0625
52.0
51.6875
51.25
50.6875
50.0
49.25
48.375
47.5
46.5625
45.75
44.875
44.0
43.125
42.3125
41.5625
40.75
40.25
39.6875
39.1875
38.8125
38.375
37.875
37.5625
38.625
46.375
68.25
96.875
116.875
125.6875
124.5625
114.6875
102.25
89.8125
78.4375
69.25
62.0
56.875
54.0625
52.75
52.25
52.1875
52.1875
52.125
51.9375
51.5625
51.0
50.3125
49.5625
48.625
47.625
46.625
45.6875
44.75
44.0
43.3125
42.625
41.9375
41.25
40.5625
40.0
39.4375
38.9375
38.5625
38.3125
38.375
41.25
54.6875
82.4375
111.1875
128.25
134.3125
131.3125
121.1875
107.8125
94.4375
82.375
72.3125
64.5
59.0625
56.0625
54.5625
53.9375
53.8125
53.75
53.5625
53.1875
52.5625
51.9375
51.125
50.25
49.375
48.375
47.25
46.25
45.3125
44.4375
43.625
42.875
42.3125
41.6875
41.0
40.3125
39.75
39.125
38.6875
38.4375
38.9375
44.0
61.875
90.9375
115.25
128.125
131.75
125.25
113.125
100.0
87.4375
76.6875
67.875
61.3125
57.125
54.875
53.75
53.3125
53.0625
52.875
52.5
52.0
51.3125
50.5625
49.875
49.0
48.125
47.25
46.4375
45.5
44.5625
43.625
42.6875
41.9375
41.25
40.6875
40.1875
39.75
39.125
38.5625
38.125
37.6875
38.0625
42.5625
59.5625
88.0625
112.4375
125.3125
128.5625
122.0625
110.125
97.1875
85.0
74.75
66.375
59.8125
55.75
53.5
52.375
51.9375
51.8125
51.6875
51.5625
51.25
50.75
50.25
49.5625
48.75
48.0
47.25
46.5625
45.875
45.25
44.625
43.875
43.1875
42.5
41.75
41.1875
40.75
40.3125
39.8125
39.4375
39.0625
39.9375
47.875
70.0
99.5625
121.625
132.875
133.4375
124.75
111.6875
97.9375
85.625
75.25
66.8125
60.375
56.375
54.3125
53.5
53.25
53.25
53.3125
53.0625
52.625
52.125
51.375
50.4375
49.5
48.4375
47.4375
46.5
45.625
44.75
44.0625
43.375
42.5625
41.8125
41.0625
40.5
40.0
39.5625
39.1875
38.875
39.0625
43.0625
59.5625
89.9375
117.75
133.4375
139.125
134.6875
124.0625
110.4375
96.5
84.125
73.875
65.875
60.375
57.375
55.9375
55.1875
55.0
54.9375
54.625
54.0
53.4375
52.6875
51.875
51.0
49.9375
48.8125
47.75
46.75
45.8125
45.0
44.25
43.5
42.875
42.1875
41.5
40.8125
40.25
39.6875
39.1875
38.875
39.9375
48.0625
70.9375
101.0
122.375
133.4375
134.75
127.3125
115.5625
101.8125
88.75
77.625
68.625
62.125
58.25
56.125
55.0625
54.5625
54.375
54.0
53.5
52.9375
52.25
51.375
50.625
49.6875
48.8125
47.9375
47.0
46.0625
45.125
44.25
43.3125
42.5625
41.875
41.3125
40.8125
40.1875
39.6875
39.1875
38.75
38.5
40.125
50.0625
74.4375
103.125
121.75
129.875
127.375
117.375
105.0625
92.3125
80.75
71.0625
63.4375
58.1875
55.25
53.8125
53.25
53.0
52.9375
52.8125
52.5625
52.125
51.5625
50.875
50.1875
49.375
48.5
47.6875
46.875
46.125
45.4375
44.6875
43.9375
43.1875
42.5
41.875
41.25
40.8125
40.375
40.0
39.625
39.625
43.3125
59.0
88.125
115.1875
130.3125
135.125
129.6875
118.1875
104.875
91.8125
80.4375
71.0625
63.8125
58.875
56.1875
54.9375
54.4375
54.3125
54.1875
54.0625
53.625
53.0625
52.3125
51.5625
50.6875
49.6875
48.5625
47.5625
46.5625
45.625
44.875
44.1875
43.5
42.875
42.1875
41.5625
40.875
40.25
39.6875
39.25
38.9375
40.0625
48.25
71.625
102.9375
126.125
139.0625
141.6875
134.9375
122.9375
108.4375
94.625
82.6875
72.875
65.375
60.4375
57.8125
56.4375
55.8125
55.5625
55.1875
54.6875
54.0625
53.375
52.625
51.75
50.8125
49.875
48.8125
47.75
46.6875
45.625
44.625
43.875
43.125
42.4375
41.75
41.0625
40.4375
39.875
39.375
38.875
38.5625
39.6875
48.0625
71.3125
100.75
121.0
131.9375
133.125
124.3125
111.75
98.5625
86.4375
76.1875
67.625
61.3125
57.5625
55.625
54.75
54.5625
54.5
54.4375
54.1875
53.8125
53.3125
52.6875
52.0
51.25
50.4375
49.5
48.5
47.5
46.5
45.5625
44.75
44.0
43.3125
42.6875
42.0625
41.5
40.9375
40.4375
39.9375
39.9375
42.6875
56.125
84.5
113.625
131.5
139.625
137.75
128.1875
115.0
101.25
88.4375
77.4375
68.6875
62.4375
58.5625
56.5625
55.875
55.5
55.4375
55.4375
55.0
54.4375
53.75
52.9375
51.9375
50.875
49.875
48.8125
47.8125
47.0
46.0625
45.125
44.25
43.5
42.75
42.125
41.625
41.125
40.75
40.25
39.75
39.6875
43.3125
59.125
89.1875
117.5625
134.125
140.0
136.625
126.6875
112.75
98.4375
85.9375
75.4375
67.125
61.4375
58.25
56.625
55.875
55.625
55.4375
55.1875
54.8125
54.1875
53.375
52.4375
51.5
50.5
49.375
48.3125
47.375
46.5
45.625
44.75
43.8125
42.9375
42.125
41.4375
40.875
40.375
39.875
39.5
39.125
39.0
41.6875
55.375
83.4375
110.875
127.0
134.25
131.0625
120.1875
107.0
93.6875
81.9375
72.125
64.3125
59.0625
56.125
54.625
53.9375
53.75
53.625
53.3125
52.875
52.3125
51.6875
50.9375
50.0625
49.0625
48.125
47.0625
46.0
45.125
44.25
43.5625
42.875
42.25
41.4375
40.6875
40.0
39.5
39.125
38.8125
38.5
38.3125
39.5
48.25
72.1875
102.1875
122.3125
132.375
132.9375
124.5625
111.875
98.25
86.125
75.9375
67.5625
61.25
57.3125
55.3125
54.3125
53.875
53.75
53.5625
53.1875
52.6875
52.125
51.3125
50.5
49.6875
48.75
47.75
46.8125
45.875
45.0625
44.3125
43.625
42.9375
42.3125
41.625
40.9375
40.375
39.8125
39.25
38.8125
38.75
41.3125
54.1875
81.875
111.375
130.125
139.1875
138.25
129.1875
116.5
102.9375
90.375
79.4375
70.3125
63.5625
59.375
57.0
55.8125
55.375
55.0
54.625
54.0625
53.4375
52.75
51.8125
50.9375
50.0625
49.1875
48.25
47.25
46.25
45.25
44.3125
43.5
42.75
42.0
41.375
40.75
40.1875
39.5
38.875
38.375
38.0625
39.3125
48.0
71.625
101.8125
122.625
133.25
134.25
125.6875
112.8125
98.75
85.75
75.0
66.3125
59.9375
56.0
54.0625
53.1875
52.9375
52.9375
52.75
52.3125
51.8125
51.1875
50.5
49.6875
48.8125
47.9375
47.125
46.1875
45.25
44.3125
43.375
42.5625
41.8125
41.125
40.5625
39.9375
39.4375
38.9375
38.375
37.875
37.5
37.625
41.5
57.125
85.3125
110.6875
124.75
128.8125
123.375
112.4375
99.875
87.625
77.25
68.6875
61.9375
57.4375
55.0625
53.875
53.3125
53.125
53.0
52.8125
52.4375
51.8125
51.0625
50.125
49.1875
48.3125
47.3125
46.4375
45.625
44.875
44.0625
43.3125
42.5
41.75
41.125
40.5625
40.0625
39.625
39.25
38.75
38.25
38.5
43.0625
60.6875
91.0
117.4375
132.0
137.5
133.25
121.9375
107.6875
94.125
82.3125
72.4375
64.625
59.375
56.5625
55.0625
54.375
54.1875
54.0
53.75
53.25
52.6875
52.0
51.125
50.125
49.1875
48.1875
47.1875
46.25
45.375
44.5625
43.75
42.9375
42.125
41.375
40.6875
40.1875
39.75
39.375
39.0
38.5625
38.625
42.125
57.25
85.9375
113.0
127.5
131.5
126.5625
115.6875
102.375
89.3125
78.0625
68.75
61.8125
57.3125
54.8125
53.5625
53.0625
52.8125
52.5625
52.3125
51.875
51.3125
50.6875
49.875
48.9375
48.0
47.0
46.0
45.0625
44.1875
43.4375
42.6875
42.0
41.25
40.5
39.875
39.25
38.75
38.375
38.0625
37.75
37.6875
40.3125
53.25
80.1875
107.5
124.5
130.375
126.0625
115.5625
102.6875
89.875
78.75
69.5625
62.3125
57.5
54.8125
53.4375
52.75
52.5
52.25
52.0
51.5625
51.0625
50.5
49.8125
49.0625
48.25
47.4375
46.5625
45.6875
45.0
44.4375
43.875
43.4375
42.875
42.375
41.875
41.3125
40.75
40.25
39.8125
39.4375
39.4375
42.5
56.1875
84.0
112.8125
130.75
138.25
135.375
124.8125
111.1875
97.1875
84.8125
74.375
66.125
60.3125
57.0625
55.375
54.6875
54.5
54.375
54.125
53.75
53.1875
52.375
51.5
50.5625
49.5625
48.5625
47.5625
46.5
45.5
44.6875
43.875
43.1875
42.5
42.0
41.375
40.75
40.125
39.5625
39.0625
38.6875
38.8125
42.5
58.125
87.9375
116.0
132.5625
140.4375
138.3125
128.75
115.4375
101.5625
88.875
77.9375
69.25
63.0
59.3125
57.25
56.1875
55.6875
55.25
54.6875
54.0625
53.375
52.625
51.8125
51.0
50.0
49.125
48.125
47.1875
46.25
45.3125
44.3125
43.4375
42.625
41.9375
41.3125
40.75
40.25
39.6875
39.0625
38.5
38.1875
40.0
50.875
77.0
106.625
125.5
133.875
132.4375
122.5
109.125
95.375
83.0625
72.9375
64.6875
58.875
55.5
53.875
53.1875
52.8125
52.75
52.5625
52.1875
51.6875
51.0
50.1875
49.3125
48.4375
47.5
46.5625
45.625
44.875
44.0625
43.25
42.375
41.5625
40.8125
40.125
39.625
39.125
38.6875
38.1875
37.6875
37.25
37.5
42.0
59.4375
88.25
112.375
125.625
128.9375
121.625
109.4375
96.5625
84.3125
73.9375
65.5625
59.25
55.4375
53.5
52.5625
52.25
52.3125
52.4375
52.4375
52.1875
51.8125
51.3125
50.625
49.75
48.75
47.8125
46.875
45.9375
45.0625
44.1875
43.375
42.625
41.9375
41.1875
40.5
39.9375
39.5625
39.1875
38.8125
38.4375
38.375
41.375
55.75
84.5
113.0
129.5
136.125
133.3125
122.5625
108.75
95.125
83.125
72.9375
65.0625
59.5625
56.375
54.75
54.0625
53.75
53.625
53.5
53.125
52.6875
52.0625
51.25
50.375
49.375
48.3125
47.3125
46.3125
45.375
44.4375
43.75
43.0
42.25
41.5625
40.8125
40.125
39.625
39.25
38.9375
38.5
38.125
39.0
46.3125
68.5
100.0625
123.25
134.0
135.125
127.875
115.8125
101.625
88.4375
77.4375
68.375
61.6875
57.5625
55.25
54.125
53.6875
53.4375
53.1875
52.75
52.125
51.5
50.875
50.0625
49.125
48.25
47.1875
46.125
45.1875
44.3125
43.4375
42.75
42.0625
41.25
40.5625
39.9375
39.25
38.8125
38.4375
38.0
37.6875
37.5625
39.3125
50.25
75.9375
104.5625
122.625
130.5625
128.75
118.875
105.5625
92.1875
80.375
70.625
62.8125
57.25
54.125
52.625
51.875
51.5625
51.5625
51.4375
51.1875
50.875
50.3125
49.75
49.0625
48.125
47.1875
46.375
45.5625
44.8125
44.1875
43.625
42.9375
42.3125
41.5625
40.875
40.5
40.0625
39.6875
39.375
39.0
38.625
39.4375
46.25
66.9375
96.5625
119.25
130.5625
132.125
124.125
111.5
97.875
85.25
74.75
66.5
60.8125
57.3125
55.3125
54.375
53.875
53.4375
53.125
52.75
52.125
51.4375
50.75
49.9375
49.0625
48.125
47.0625
46.125
45.25
44.375
43.625
42.9375
42.1875
41.4375
40.8125
40.125
39.5625
39.125
38.75
38.375
38.125
38.3125
42.1875
58.875
89.125
116.25
131.1875
136.8125
132.625
121.8125
108.125
94.375
82.625
72.8125
65.0
59.875
56.9375
55.1875
54.375
54.0
53.625
53.1875
52.6875
52.0
51.3125
50.625
49.6875
48.5625
47.5625
46.5
45.5625
44.75
43.9375
43.125
42.4375
41.75
40.875
40.125
39.4375
38.875
38.4375
38.125
37.75
37.375
38.375
46.125
68.6875
98.625
119.5625
129.75
130.0625
120.9375
108.1875
95.25
83.3125
73.3125
65.125
58.875
55.0625
53.125
52.1875
51.75
51.625
51.5
51.25
51.0
50.5
49.875
49.25
48.5625
47.75
47.0625
46.4375
45.8125
45.0
44.375
43.625
42.9375
42.375
41.875
41.375
40.8125
40.375
39.875
39.3125
38.875
38.875
42.875
59.25
88.4375
114.75
129.5
134.75
129.25
117.375
103.75
90.4375
79.125
69.8125
62.375
57.375
54.8125
53.5625
53.0625
53.0
53.0
52.875
52.5
52.0625
51.375
50.5625
49.5
48.5
47.5
46.5625
45.625
44.8125
44.0625
43.3125
42.5
41.75
41.0
40.3125
39.75
39.25
38.875
38.5625
38.125
38.125
41.375
56.125
85.3125
113.625
130.125
137.375
134.6875
124.3125
110.8125
96.9375
84.5
74.125
65.875
59.875
56.4375
54.6875
53.875
53.5625
53.3125
52.9375
52.5
52.0
51.3125
50.5
49.625
48.6875
47.6875
46.6875
45.75
44.8125
44.0
43.25
42.4375
41.625
40.875
40.1875
39.625
39.125
38.6875
38.25
37.8125
37.625
38.875
48.125
72.5
102.0
121.25
130.25
129.3125
119.375
106.1875
92.5625
80.625
70.8125
62.9375
57.4375
54.25
52.625
51.875
51.625
51.5
51.3125
51.0625
50.625
50.0
49.375
48.6875
47.8125
46.9375
46.0
45.0625
44.25
43.5625
42.875
42.3125
41.75
41.25
40.75
40.375
40.0
39.75
39.5
39.25
39.125
40.5
49.5
73.125
103.125
124.4375
134.6875
134.4375
125.5625
112.625
98.5625
85.875
75.3125
66.875
60.6875
56.9375
55.0625
54.0
53.5
53.3125
53.0625
52.8125
52.25
51.625
51.0
50.25
49.4375
48.625
47.625
46.6875
45.625
44.625
43.8125
43.0
42.25
41.625
41.0625
40.5625
40.0
39.375
38.8125
38.375
38.1875
40.0
50.875
77.25
108.125
128.9375
138.25
137.8125
129.9375
117.4375
103.25
90.25
78.9375
69.75
62.9375
58.875
56.6875
55.625
55.25
54.9375
54.6875
54.25
53.6875
52.9375
52.0625
51.125
50.1875
49.0625
47.9375
46.9375
46.0
45.125
44.3125
43.4375
42.5625
41.8125
41.0625
40.3125
39.75
39.1875
38.6875
38.25
38.0
38.5
44.4375
64.5
94.625
117.4375
128.875
131.25
124.4375
112.3125
98.8125
86.3125
75.625
67.0
60.5625
56.5
54.375
53.25
52.6875
52.375
52.0625
51.75
51.3125
50.6875
50.0
49.1875
48.5
47.75
46.8125
45.8125
44.875
43.9375
43.0625
42.3125
41.5625
40.9375
40.3125
39.6875
39.125
38.625
38.125
37.625
37.3125
37.4375
40.625
55.375
83.6875
109.875
125.5
132.25
128.25
117.3125
103.9375
90.75
79.5625
70.125
62.75
57.875
55.1875
53.75
53.125
52.9375
52.875
52.75
52.375
51.9375
51.3125
50.6875
49.875
49.0625
48.1875
47.375
46.6875
45.9375
45.25
44.5
43.8125
43.1875
42.625
42.125
41.5625
41.125
40.75
40.3125
39.75
39.4375
41.1875
51.875
77.5
107.4375
127.25
136.4375
135.75
126.875
113.6875
99.4375
86.75
76.0625
67.5
61.125
57.3125
55.375
54.4375
54.0625
53.875
53.6875
53.4375
53.0625
52.4375
51.625
50.875
50.0
49.0
47.9375
46.875
45.875
45.0
44.1875
43.4375
42.75
42.125
41.5625
40.9375
40.3125
39.75
39.3125
38.875
38.625
40.0
49.5625
74.875
106.6875
128.8125
140.5625
143.3125
137.1875
125.875
112.0
97.9375
85.4375
74.9375
66.9375
61.6875
58.6875
57.1875
56.5
56.25
55.875
55.3125
54.6875
54.0
53.125
52.125
51.125
50.125
49.0625
47.9375
46.9375
45.9375
45.0625
44.0625
43.125
42.3125
41.5625
41.0
40.5625
40.0
39.5625
39.125
38.6875
38.8125
42.875
59.625
89.25
114.75
128.75
133.4375
128.0
116.75
103.25
90.25
79.3125
69.875
62.3125
57.0625
54.1875
52.8125
52.1875
52.0625
52.0625
51.875
51.5
51.0
50.375
49.625
48.75
47.875
46.9375
46.0
45.0625
44.125
43.3125
42.4375
41.625
40.8125
40.0
39.25
38.625
38.125
37.875
37.6875
37.5
37.5
38.6875
46.625
69.875
100.75
122.625
134.5
136.875
129.1875
117.125
103.5625
90.4375
79.5
70.4375
63.3125
58.5625
56.125
55.125
54.6875
54.625
54.5
54.25
53.875
53.375
52.8125
52.125
51.3125
50.5
49.625
48.75
47.75
46.875
46.0
45.1875
44.4375
43.6875
43.0
42.375
41.8125
41.1875
40.5625
39.9375
39.5625
40.0625
46.375
67.0625
98.5625
124.25
138.1875
143.0
138.5625
127.75
113.5
99.0625
86.5625
76.1875
67.875
62.1875
58.9375
57.0625
56.1875
55.6875
55.0625
54.5625
53.875
53.125
52.3125
51.4375
50.3125
49.25
48.25
47.1875
46.1875
45.375
44.5
43.6875
42.8125
42.0625
41.25
40.5625
40.0
39.5625
39.0625
38.5625
38.0
37.6875
39.375
50.375
75.9375
103.25
119.9375
128.0625
126.3125
116.375
104.0625
91.1875
79.75
70.0625
62.25
56.875
53.9375
52.375
51.75
51.6875
51.75
52.0
52.0625
52.0625
52.0625
51.9375
51.625
51.1875
50.4375
49.5625
48.6875
47.6875
46.6875
45.8125
45.0
44.1875
43.375
42.625
41.875
41.25
40.75
40.5
40.1875
40.6875
46.1875
64.5
93.5625
118.6875
132.375
136.5
131.5625
120.5
106.75
93.3125
81.75
72.1875
64.75
59.875
57.1875
55.8125
55.125
54.8125
54.5625
54.3125
53.875
53.1875
52.375
51.5
50.5625
49.5
48.5
47.5625
46.625
45.75
44.875
44.0
43.1875
42.5
41.8125
41.25
40.6875
40.1875
39.6875
39.125
38.6875
40.0625
49.75
74.875
105.5625
126.375
136.5
136.1875
127.5625
115.125
101.1875
88.25
77.3125
68.25
61.5625
57.4375
55.125
53.8125
53.25
52.9375
52.6875
52.25
51.625
50.9375
50.125
49.25
48.25
47.3125
46.375
45.375
44.5625
43.75
43.0625
42.4375
41.6875
41.0
40.3125
39.5625
39.0
38.5
38.0
37.625
37.5
39.75
51.4375
76.9375
103.3125
119.625
127.1875
124.875
114.625
102.0625
89.1875
77.8125
68.5625
61.25
56.25
53.5
52.125
51.4375
51.25
51.125
51.0
50.875
50.625
50.25
49.75
49.1875
48.625
48.0
47.3125
46.5
45.75
45.0
44.1875
43.4375
42.75
42.1875
41.625
41.0625
40.5
39.875
39.375
39.125
40.6875
50.375
74.375
103.875
124.0
133.0
133.0625
124.625
111.625
97.6875
85.125
74.6875
66.4375
60.375
56.8125
54.9375
54.0
53.625
53.4375
53.25
52.9375
52.375
51.6875
50.9375
50.0625
49.0625
48.125
47.125
46.1875
45.25
44.375
43.625
42.875
42.1875
41.4375
40.625
39.9375
39.375
38.8125
38.375
38.125
39.0625
46.75
68.875
99.1875
121.0625
132.375
134.9375
128.625
117.125
103.0625
89.875
78.5
69.0
61.9375
57.4375
54.875
53.5625
53.0
52.6875
52.375
52.0
51.4375
50.875
50.125
49.25
48.375
47.4375
46.5625
45.6875
44.8125
43.9375
42.9375
42.125
41.375
40.6875
40.0625
39.375
38.75
38.25
37.8125
37.375
37.125
39.8125
53.0625
80.0625
106.125
121.6875
127.875
123.375
112.125
99.375
87.0
76.3125
67.375
60.3125
55.625
53.0625
51.875
51.5
51.5625
51.625
51.5625
51.375
51.0
50.4375
49.75
48.9375
48.0
47.0625
46.25
45.375
44.5625
43.75
43.1875
42.5625
41.8125
41.1875
40.5625
40.0
39.5
39.125
38.75
38.75
41.4375
54.0625
80.8125
109.125
126.375
133.5
131.0625
121.3125
108.5625
94.9375
82.75
72.5625
64.5
58.9375
55.875
54.4375
53.8125
53.5625
53.3125
53.0
52.625
52.0
51.375
50.625
49.75
49.0625
48.3125
47.3125
46.375
45.375
44.4375
43.5
42.625
41.9375
41.4375
40.9375
40.4375
39.9375
39.375
38.6875
38.3125
40.0
50.5625
76.375
106.125
124.25
132.1875
131.875
123.0
110.125
96.5625
84.25
73.8125
65.5
59.5
55.8125
53.75
52.625
52.0625
51.8125
51.5
51.125
50.6875
50.125
49.4375
48.625
47.8125
46.8125
45.75
44.8125
43.875
43.0
42.25
41.625
40.8125
40.125
39.4375
38.75
38.3125
37.75
37.375
37.125
37.875
44.875
66.3125
95.8125
117.375
129.3125
131.125
123.125
110.875
97.4375
84.9375
74.25
65.5
59.0
54.9375
52.75
51.75
51.3125
51.0
50.8125
50.5625
50.1875
49.625
49.0
48.25
47.5625
46.8125
46.0
45.25
44.4375
43.625
43.0625
42.5
41.9375
41.5
41.1875
40.75
40.3125
40.0
39.625
39.125
39.5625
45.1875
64.3125
94.125
118.8125
132.0
134.8125
128.25
116.4375
102.1875
88.8125
77.6875
68.5625
61.5
56.8125
54.3125
53.125
52.5
52.375
52.25
52.0
51.5625
51.125
50.5625
49.8125
48.9375
47.9375
46.9375
45.9375
44.9375
44.125
43.375
42.625
41.9375
41.3125
40.5625
39.9375
39.25
38.75
38.3125
38.0625
38.625
44.8125
65.5
96.75
121.4375
135.0
139.5
134.6875
124.1875
110.3125
96.0
83.375
72.9375
64.875
59.5
56.375
54.6875
53.875
53.4375
53.125
52.625
52.0
51.375
50.5625
49.75
48.875
47.9375
46.9375
46.125
45.25
44.375
43.5625
42.6875
41.75
40.9375
40.25
39.625
39.0625
38.5625
38.0625
37.5625
37.625
41.375
57.1875
85.5
110.0
123.75
128.125
121.75
109.9375
97.25
84.875
74.1875
65.5625
59.0
54.75
52.5
51.3125
50.75
50.6875
50.6875
50.625
50.5
50.25
49.875
49.4375
48.8125
47.9375
47.0
46.0
45.0625
44.25
43.4375
42.75
42.0625
41.375
40.625
39.9375
39.3125
38.6875
38.1875
37.875
38.5
44.3125
63.625
94.0625
119.25
132.5
135.625
129.0
116.4375
101.875
88.5
77.1875
68.0625
61.25
56.8125
54.3125
53.0625
52.625
52.375
52.0625
51.75
51.3125
50.75
50.0625
49.3125
48.5
47.625
46.875
46.0625
45.1875
44.3125
43.375
42.5
41.6875
40.9375
40.375
39.875
39.375
38.875
38.4375
38.0625
39.4375
49.0
73.5
103.375
123.4375
132.5
131.9375
122.375
109.125
95.5
83.25
72.875
64.5625
58.5625
54.9375
52.875
51.75
51.25
51.0625
50.875
50.625
50.25
49.8125
49.25
48.5625
47.75
46.75
45.75
44.75
43.8125
43.0625
42.3125
41.625
41.0
40.25
39.5625
38.8125
38.1875
37.6875
37.375
37.3125
39.6875
51.5
77.25
104.3125
120.5625
126.75
122.75
112.25
100.0
87.6875
76.6875
67.6875
60.4375
55.3125
52.5625
51.125
50.375
50.125
50.0
49.875
49.6875
49.375
48.875
48.1875
47.4375
46.75
46.0625
45.375
44.75
44.1875
43.6875
43.3125
43.0
42.75
42.5
42.3125
42.125
41.8125
41.375
41.0
41.5625
47.5
66.8125
96.1875
120.3125
133.25
135.1875
127.375
114.5625
99.8125
86.875
76.6875
68.1875
61.875
58.0
56.0625
55.0625
54.5625
54.4375
54.125
54.375
53.9375
53.1875
53.0
52.125
50.8125
49.5
48.25
47.6875
46.5
45.25
44.5625
43.75
43.25
43.3125
42.125
41.4375
41.375
40.6875
40.0625
39.6875
41.625
52.0625
76.375
105.25
125.3125
134.5
135.0
128.25
116.1875
102.5
89.1875
78.0
68.875
62.0625
58.0
56.0
54.8125
54.5625
54.25
53.875
53.75
53.0625
52.4375
51.8125
50.9375
50.125
49.0
47.5625
46.625
45.6875
44.875
43.8125
43.0625
42.375
41.5
40.8125
40.4375
40.125
39.625
39.0625
38.6875
39.875
48.4375
70.5
97.0625
115.125
123.0
121.875
114.1875
103.1875
90.625
78.8125
68.75
60.625
54.9375
51.8125
50.6875
50.4375
50.375
50.125
49.625
49.25
49.25
49.0625
48.5625
48.0
47.25
46.375
45.75
45.0625
44.25
43.75
43.3125
43.0625
42.9375
42.6875
42.5
42.375
42.0625
41.6875
41.1875
41.1875
44.6875
59.0
84.8125
108.75
122.9375
128.6875
125.25
114.75
102.1875
90.0625
79.25
70.1875
63.0
58.375
55.875
54.625
54.0625
54.25
54.25
54.0625
53.8125
53.8125
53.3125
52.5625
51.6875
50.4375
48.9375
47.875
46.9375
45.9375
44.875
44.375
43.75
42.8125
42.3125
41.8125
41.1875
40.875
40.4375
40.0625
41.1875
48.3125
69.25
98.3125
119.5625
130.1875
133.0
128.0625
117.75
104.9375
92.125
80.5
70.9375
64.0
59.625
56.875
55.5625
55.125
54.75
54.5
54.125
53.875
53.5
52.8125
51.875
50.9375
49.9375
49.1875
48.4375
47.625
46.75
46.0
45.1875
44.5
44.0
43.375
42.875
42.5
42.375
42.3125
42.25
43.375
50.375
69.75
95.0625
113.6875
123.375
124.75
117.4375
106.0625
94.3125
83.25
74.0
66.375
61.0625
58.125
56.1875
55.5625
55.5
55.375
55.1875
55.1875
55.0
54.5
54.0625
53.375
52.25
51.3125
50.5
49.375
48.3125
47.25
46.625
46.3125
45.75
44.6875
43.5
42.8125
42.1875
41.3125
40.625
40.75
43.3125
54.375
76.75
101.5
118.5625
127.25
127.25
118.875
106.75
93.4375
81.125
71.25
63.3125
57.6875
54.4375
52.5625
51.5625
51.0625
50.875
50.75
50.25
49.6875
49.0625
48.4375
47.6875
46.9375
46.0625
45.125
44.0625
43.1875
42.1875
41.25
40.6875
40.1875
39.625
39.1875
38.5625
37.875
37.3125
36.8125
36.5625
38.375
48.8125
72.1875
96.875
112.1875
120.25
119.875
111.0
99.25
87.1875
76.0625
66.75
59.3125
54.0625
51.0625
49.4375
48.5625
48.1875
48.125
48.0625
47.75
47.3125
46.875
46.3125
45.6875
45.0
44.3125
43.625
42.9375
42.3125
41.6875
40.9375
40.1875
39.5625
39.125
38.6875
38.5625
38.375
38.1875
38.0
38.1875
41.625
56.0
81.625
105.375
119.1875
125.1875
122.875
113.4375
101.4375
88.9375
77.75
68.4375
61.3125
56.375
53.4375
51.75
50.8125
50.3125
50.0
49.9375
50.0
49.75
49.3125
48.75
48.0625
47.3125
46.375
45.375
44.375
43.4375
42.625
41.8125
41.0
40.3125
39.6875
39.125
38.5625
38.0
37.5625
37.1875
37.9375
44.75
65.0625
93.3125
114.75
126.9375
131.875
127.625
116.75
103.3125
90.375
79.0
69.5625
62.0625
57.0625
54.1875
52.5625
51.6875
51.375
51.25
50.9375
50.625
50.0625
49.375
48.6875
47.875
46.9375
46.0625
45.1875
44.3125
43.375
42.4375
41.5625
40.8125
40.125
39.4375
38.9375
38.4375
37.9375
37.375
36.75
36.75
40.9375
56.875
83.5625
106.0
117.3125
121.1875
116.9375
106.0
93.625
81.9375
71.875
63.4375
56.9375
52.875
50.5
49.125
48.5625
48.25
48.0
47.6875
47.4375
47.0
46.4375
45.8125
45.0625
44.25
43.4375
42.75
42.0625
41.25
40.5
39.75
39.0
38.375
37.75
37.1875
36.5625
35.9375
35.5
35.1875
35.0
36.4375
45.625
67.6875
92.625
108.1875
115.375
115.6875
108.75
97.875
86.625
76.125
67.1875
60.25
55.5625
52.75
51.125
50.25
49.8125
49.75
49.625
49.375
49.1875
48.625
48.0625
47.3125
46.5
45.75
45.0625
44.25
43.375
42.5
41.625
40.875
40.25
39.625
39.125
38.75
38.375
37.875
37.3125
36.8125
37.25
43.5
62.375
88.8125
108.875
119.25
123.375
118.625
107.375
94.625
82.625
72.375
64.0625
57.875
53.9375
51.75
50.4375
49.6875
49.3125
49.0
48.8125
48.5
48.125
47.5
46.8125
46.125
45.1875
44.375
43.75
43.0
42.3125
41.5
40.75
40.0625
39.25
38.5
37.9375
37.4375
36.9375
36.5625
36.3125
36.5
40.0625
53.9375
78.5
101.0625
113.25
117.5625
113.6875
103.9375
92.1875
80.625
70.875
62.75
56.625
52.5625
50.25
48.75
47.875
47.375
47.125
46.8125
46.5625
46.3125
45.875
45.375
44.8125
44.125
43.3125
42.5
41.6875
40.875
40.1875
39.4375
38.8125
38.25
37.6875
37.125
36.5
35.9375
35.4375
35.0625
34.8125
35.75
43.125
62.5625
86.875
103.625
112.0625
112.6875
105.375
94.75
83.8125
73.4375
64.8125
58.0
53.0
50.1875
48.6875
47.8125
47.5
47.375
47.3125
47.25
47.125
46.75
46.375
45.8125
45.1875
44.4375
43.75
43.125
42.3125
41.5
40.625
39.8125
39.0625
38.4375
37.875
37.375
36.875
36.5625
36.1875
35.8125
36.3125
42.625
61.3125
87.1875
106.5
115.9375
117.9375
111.875
100.9375
89.375
78.4375
68.9375
61.3125
55.4375
51.625
49.625
48.4375
47.875
47.6875
47.625
47.5625
47.3125
46.9375
46.625
46.0
45.25
44.5625
43.75
42.9375
42.3125
41.75
41.0625
40.375
39.6875
38.9375
38.25
37.625
37.0
36.5625
36.25
35.9375
36.9375
44.0
63.0625
88.75
107.4375
116.625
118.875
112.75
101.8125
90.0
79.0625
69.625
61.6875
55.9375
52.1875
49.9375
48.6875
48.0
47.5625
47.4375
47.25
46.9375
46.5625
46.0625
45.4375
44.875
44.1875
43.4375
42.75
41.875
41.0625
40.3125
39.625
38.9375
38.4375
37.9375
37.3125
36.75
36.25
35.6875
35.25
36.1875
43.125
62.25
87.0625
104.25
112.625
114.0625
107.5
96.5625
85.25
74.875
65.875
58.75
53.8125
50.75
49.1875
48.375
47.875
47.6875
47.75
47.5
47.1875
47.0
46.6875
46.1875
45.75
45.125
44.4375
43.875
43.25
42.4375
41.625
40.9375
40.3125
39.4375
38.75
38.125
37.625
37.3125
36.9375
36.875
39.625
51.875
76.25
101.0625
116.25
123.3125
121.4375
112.0625
99.8125
87.3125
76.375
67.5
60.3125
55.3125
52.3125
50.75
49.75
49.25
49.0625
49.0
48.75
48.4375
48.0625
47.4375
46.6875
46.0625
45.25
44.375
43.625
42.75
41.9375
41.125
40.4375
39.75
39.1875
38.6875
38.0625
37.5625
36.875
36.3125
37.375
45.5625
67.25
93.8125
111.5
121.125
123.875
117.4375
105.6875
92.9375
81.1875
71.25
63.1875
57.25
53.625
51.625
50.5
49.875
49.5625
49.375
49.0625
48.625
48.0625
47.5
46.75
46.0
45.25
44.375
43.5625
42.9375
42.125
41.375
40.8125
40.0625
39.25
38.625
37.9375
37.375
37.0
36.5625
36.4375
39.1875
51.9375
76.8125
100.25
114.0
120.3125
117.625
107.875
96.6875
85.5
75.25
66.6875
59.875
55.3125
52.6875
51.25
50.5
50.125
50.0
49.9375
49.75
49.4375
49.0
48.375
47.75
47.0625
46.3125
45.625
44.9375
44.25
43.4375
42.625
41.8125
41.0
40.4375
39.875
39.3125
38.9375
38.5625
38.1875
39.8125
49.5625
72.9375
100.0625
117.8125
126.5
127.625
120.0
107.4375
94.0625
81.9375
71.875
63.9375
58.25
54.875
53.0
52.0625
51.6875
51.5625
51.4375
51.125
50.75
50.375
49.75
49.125
48.3125
47.375
46.4375
45.375
44.5625
43.6875
43.0
42.3125
41.625
40.9375
40.1875
39.5
38.75
38.125
37.6875
38.25
44.625
64.5
92.4375
113.25
125.5625
130.25
124.75
113.3125
100.5
87.8125
76.6875
67.6875
60.875
56.5625
54.125
52.9375
52.5
52.3125
52.0625
51.625
51.25
50.75
50.0625
49.1875
48.375
47.5625
46.6875
45.75
44.9375
44.0625
43.125
42.1875
41.375
40.6875
40.125
39.5
39.0
38.5625
38.0
37.875
40.25
52.375
77.0
100.8125
115.375
122.625
120.5
110.625
98.375
86.4375
75.75
66.9375
60.125
55.6875
53.3125
52.1875
51.6875
51.6875
51.8125
51.75
51.625
51.3125
50.875
50.3125
49.75
48.875
47.9375
47.0625
46.1875
45.4375
44.6875
44.0625
43.375
42.6875
42.0
41.3125
40.5625
40.0625
39.6875
39.8125
43.875
59.75
87.3125
111.625
125.6875
132.1875
129.875
120.25
107.5625
94.5625
82.9375
73.375
65.8125
60.8125
57.8125
56.1875
55.3125
54.875
54.5625
54.25
53.875
53.3125
52.6875
51.8125
50.8125
50.0
49.0
47.875
47.0
46.1875
45.1875
44.3125
43.8125
43.3125
42.5625
41.875
41.25
40.6875
40.375
40.25
43.5
58.3125
86.5625
113.0
128.75
137.0
136.125
127.0
114.4375
101.125
88.4375
77.6875
69.125
63.0625
59.375
57.4375
56.5625
56.3125
56.0625
55.8125
55.375
54.8125
53.9375
53.0
51.9375
50.8125
49.6875
48.5625
47.4375
46.3125
45.3125
44.25
43.3125
42.5625
41.875
41.1875
40.5
39.75
39.125
38.6875
39.625
47.5
69.3125
96.625
115.3125
125.8125
128.1875
121.1875
109.25
96.125
83.9375
73.75
65.375
59.125
55.5625
53.625
52.625
52.25
52.0625
51.875
51.625
51.25
50.6875
49.9375
49.125
48.25
47.375
46.5
45.5625
44.6875
43.8125
42.9375
42.125
41.3125
40.5625
40.0
39.5625
39.125
38.6875
38.3125
38.375
41.9375
57.375
84.6875
107.875
121.75
128.5625
125.375
115.125
103.0625
90.9375
80.1875
71.0625
63.9375
59.1875
56.625
55.375
54.875
54.75
54.5625
54.375
53.9375
53.375
52.625
51.8125
50.9375
49.875
48.8125
47.75
46.75
45.9375
45.0625
44.25
43.5625
43.0
42.3125
41.625
41.0
40.5
40.125
40.4375
45.6875
64.125
93.4375
117.8125
132.1875
138.625
135.0625
124.5625
111.0
97.25
85.1875
75.0
66.875
61.5
58.375
56.6875
56.0
55.75
55.375
55.0625
54.625
54.0
53.3125
52.4375
51.5625
50.5625
49.625
48.6875
47.6875
46.6875
45.625
44.6875
43.75
42.875
42.125
41.5625
40.9375
40.375
39.8125
39.5625
42.6875
57.375
84.625
109.0625
123.1875
129.75
126.8125
115.9375
102.5625
89.5625
78.3125
69.1875
62.25
57.8125
55.375
54.0
53.3125
53.0625
52.75
52.4375
52.0625
51.5
50.8125
50.1875
49.375
48.4375
47.5
46.375
45.375
44.375
43.625
42.8125
42.0625
41.4375
40.875
40.3125
39.75
39.25
38.875
38.875
41.6875
54.625
80.3125
104.875
119.9375
127.25
124.6875
114.375
101.9375
89.625
78.625
69.4375
62.3125
57.75
55.25
53.875
53.375
53.25
53.1875
53.0
52.8125
52.4375
51.8125
51.0625
50.1875
49.1875
48.25
47.25
46.25
45.5
44.75
44.0625
43.375
42.625
41.9375
41.125
40.5
40.1875
39.875
40.25
45.5
63.9375
93.0
116.9375
130.9375
137.25
133.0
121.625
108.0
94.3125
82.5625
72.5625
64.75
59.9375
57.1875
55.5625
55.125
54.8125
54.625
54.625
54.0
53.6875
53.0625
52.3125
52.0
51.25
50.0625
49.1875
48.25
47.4375
46.75
45.8125
44.875
44.4375
43.6875
43.1875
43.0625
42.5
42.125
42.75
47.9375
65.0
91.0625
112.0625
123.25
127.0625
122.75
112.625
101.25
89.75
79.0625
70.125
63.375
58.9375
55.25
54.5
53.875
52.625
52.125
52.5625
52.1875
52.125
51.3125
50.0625
50.75
49.8125
48.125
47.1875
45.5625
44.1875
43.0
42.25
41.5625
41.125
41.25
41.75
41.25
40.4375
39.625
39.6875
42.5
55.625
79.75
100.0
111.125
116.625
114.5625
105.1875
93.3125
83.75
75.5
66.625
61.375
58.625
56.0
55.0
54.625
54.3125
54.1875
53.875
53.4375
52.875
52.5625
52.0
51.0
50.25
49.9375
50.0
49.4375
48.4375
47.125
45.1875
43.75
42.875
41.8125
40.5625
39.1875
38.0
36.8125
36.25
43.5
65.6875
93.25
111.6875
121.9375
126.9375
123.3125
113.5625
101.5625
89.4375
78.75
69.8125
63.1875
59.1875
56.9375
55.6875
55.0
54.5625
54.1875
53.8125
53.25
52.6875
52.0625
51.1875
50.3125
49.375
48.5
47.5625
46.6875
45.8125
45.0
44.1875
43.3125
42.5625
41.9375
41.375
40.9375
40.5625
40.6875
44.125
58.5625
85.125
108.25
120.6875
126.8125
125.0625
115.5625
103.1875
90.9375
79.8125
70.5
63.3125
58.6875
56.0
54.625
53.9375
53.5625
53.3125
52.9375
52.4375
51.875
51.25
50.5
49.625
48.75
47.875
46.9375
46.0625
45.125
44.1875
43.3125
42.625
42.0
41.375
40.75
40.1875
39.6875
39.25
39.5
44.3125
61.8125
88.125
107.0625
116.25
118.9375
113.5625
103.125
91.625
80.9375
71.75
64.375
59.3125
56.25
54.5
53.5625
53.0625
52.75
52.5625
52.25
51.875
51.4375
50.8125
50.25
49.625
48.75
47.875
47.0
46.125
45.375
44.5625
43.875
43.25
42.5625
41.9375
41.1875
40.5
40.0
39.6875
41.5625
52.3125
77.25
103.8125
118.6875
126.6875
128.375
121.0
109.375
97.0625
85.4375
75.3125
67.125
61.3125
57.9375
56.0625
55.125
54.6875
54.4375
54.125
53.6875
53.0625
52.25
51.375
50.375
49.4375
48.5
47.625
46.8125
46.0625
45.25
44.5
43.6875
42.9375
42.1875
41.5
40.9375
40.375
40.0
40.3125
44.5625
61.1875
89.0625
111.3125
122.625
128.625
126.625
117.375
105.3125
93.125
82.0625
72.625
65.0625
60.1875
57.8125
56.5625
55.375
54.875
54.625
54.0625
53.3125
52.6875
51.625
50.5
49.6875
48.75
48.3125
47.5625
45.6875
44.4375
44.125
43.6875
42.875
41.875
41.375
40.625
40.0
39.5625
38.75
39.0
43.125
59.0625
85.625
106.3125
116.9375
121.375
117.0
106.3125
95.25
84.375
74.3125
66.3125
60.625
57.125
53.6875
53.25
53.3125
51.875
51.375
51.25
50.625
49.875
49.0625
48.375
47.8125
46.9375
46.0625
45.375
44.8125
44.0625
43.375
42.75
42.375
42.0
41.75
41.4375
41.125
40.6875
40.375
41.3125
48.75
69.5625
97.0625
116.375
126.125
127.625
120.4375
109.0625
96.5625
84.8125
74.9375
66.9375
61.125
57.6875
55.75
54.625
54.1875
53.9375
53.6875
53.375
52.875
52.25
51.5
50.625
49.5
48.4375
47.375
46.375
45.375
44.5625
43.875
43.125
42.5
41.875
41.125
40.4375
39.875
39.5
39.3125
42.0625
55.75
83.3125
109.6875
124.9375
132.8125
132.125
123.8125
111.4375
98.125
86.1875
76.0625
67.875
62.0625
58.8125
57.0625
56.25
55.9375
55.5625
55.0625
54.5
53.8125
52.9375
51.875
50.9375
49.875
48.75
47.8125
46.875
45.9375
45.125
44.25
43.3125
42.625
42.0
41.25
40.8125
40.4375
40.0
40.125
44.4375
60.75
88.25
110.5625
122.4375
126.625
121.5
110.625
98.375
86.5625
76.4375
68.125
61.75
57.6875
55.4375
54.25
53.5
53.125
52.875
52.4375
52.0
51.4375
50.625
49.875
49.0625
48.125
47.1875
46.3125
45.3125
44.5
43.6875
42.875
42.1875
41.5
40.875
40.125
39.5
38.9375
38.5625
39.25
45.625
65.375
92.9375
112.375
122.5
125.25
118.75
107.1875
94.75
83.25
73.4375
65.5625
60.125
57.0
55.25
54.5625
54.3125
54.0625
54.0
53.75
53.1875
52.625
51.9375
51.0
50.125
49.25
48.3125
47.5
46.625
45.625
44.6875
43.875
43.0
42.1875
41.625
41.0
40.625
40.3125
40.0625
42.1875
54.0
80.125
107.875
125.0
132.8125
131.1875
121.375
108.1875
95.0625
83.4375
73.5
65.75
60.375
57.375
55.875
55.125
54.8125
54.6875
54.4375
53.9375
53.4375
52.75
51.875
51.0625
50.125
49.0625
48.0625
47.125
46.0
45.125
44.375
43.6875
42.9375
42.375
41.75
41.0625
40.4375
40.0
40.0625
43.875
60.1875
88.1875
111.625
125.5625
132.375
129.4375
119.5
106.5
93.4375
82.1875
72.625
65.1875
60.1875
57.25
55.875
55.125
54.875
54.625
54.0625
53.5
52.875
52.125
51.375
50.375
49.375
48.375
47.25
46.25
45.375
44.5
43.6875
42.9375
42.1875
41.5625
41.0
40.5625
40.1875
39.75
39.625
42.25
55.5625
82.5625
108.125
123.125
130.5625
127.1875
116.0
102.8125
90.0625
79.25
70.3125
63.5
59.1875
56.75
55.4375
54.9375
54.6875
54.5625
54.25
53.75
53.1875
52.375
51.5625
50.6875
49.75
48.75
47.8125
46.875
46.0
45.1875
44.5
43.8125
43.1875
42.5625
41.9375
41.25
40.6875
40.1875
40.375
45.4375
64.5
94.8125
119.4375
134.125
140.375
136.1875
125.5
111.3125
97.0625
84.6875
74.5
66.8125
62.0
59.3125
57.875
57.3125
57.0
56.625
56.25
55.625
54.875
54.0
53.0
51.9375
50.8125
49.75
48.75
47.8125
46.8125
45.875
45.0
44.1875
43.3125
42.5625
41.9375
41.4375
40.875
40.375
40.1875
43.0625
57.125
84.9375
111.0
125.9375
132.1875
128.5
117.25
103.9375
91.3125
80.1875
70.75
63.625
59.125
56.6875
55.375
54.75
54.4375
54.125
53.6875
53.125
52.5625
51.875
51.0
50.0625
49.125
48.1875
47.1875
46.25
45.3125
44.5
43.75
43.0625
42.375
41.6875
41.0
40.4375
39.9375
39.4375
39.3125
41.0
51.5625
76.6875
104.0625
121.4375
130.75
130.3125
121.5
109.125
95.9375
84.3125
74.5625
66.6875
61.25
58.1875
56.5625
55.75
55.5625
55.375
55.0625
54.6875
54.0625
53.1875
52.3125
51.375
50.4375
49.375
48.4375
47.5625
46.625
45.6875
44.8125
44.0
43.25
42.625
42.0625
41.5625
41.0625
40.5625
40.25
41.75
52.4375
78.75
107.875
125.9375
136.1875
137.1875
128.8125
116.0625
102.0
89.0625
78.125
69.25
63.0
59.375
57.375
56.4375
56.125
55.875
55.625
55.125
54.5
53.875
53.0625
52.0625
51.0
49.875
48.75
47.6875
46.6875
45.875
45.125
44.375
43.75
43.0
42.3125
41.625
40.9375
40.375
40.0
40.5
45.9375
65.0
94.625
118.125
131.4375
136.0
130.125
117.875
103.8125
90.5
79.125
69.875
63.125
59.0
56.6875
55.5
55.125
55.0
54.8125
54.4375
53.8125
53.1875
52.3125
51.375
50.375
49.375
48.375
47.4375
46.5625
45.625
44.75
43.8125
43.0
42.3125
41.6875
41.125
40.6875
40.125
39.6875
39.3125
40.6875
50.375
74.875
102.6875
120.0
128.75
127.9375
118.0625
104.9375
92.25
80.9375
71.375
63.8125
58.75
55.9375
54.4375
53.75
53.4375
53.3125
53.1875
52.875
52.375
51.8125
51.125
50.3125
49.4375
48.5625
47.6875
46.8125
46.0625
45.375
44.875
44.3125
43.6875
43.0625
42.4375
41.875
41.375
40.9375
40.625
41.3125
48.0
68.6875
98.0
119.75
131.5625
135.0
128.6875
116.9375
103.125
89.625
78.375
69.5
63.1875
59.5
57.6875
56.875
56.4375
56.125
55.8125
55.375
54.75
53.9375
53.0625
52.0625
51.0
50.0
48.9375
48.0
47.0625
46.125
45.25
44.375
43.625
42.9375
42.4375
41.9375
41.5
41.0
40.5
40.75
45.6875
64.6875
95.9375
120.8125
134.75
140.5
136.125
125.125
111.1875
97.1875
84.8125
74.5
66.6875
61.5
58.625
57.1875
56.625
56.5
56.3125
56.0
55.5
54.75
53.875
52.9375
51.8125
50.6875
49.6875
48.5625
47.4375
46.5
45.5625
44.6875
43.9375
43.25
42.5625
41.9375
41.375
40.8125
40.3125
40.0625
41.6875
52.25
78.125
106.75
124.5
134.25
134.5
125.3125
112.1875
98.25
85.6875
75.1875
66.875
61.3125
58.1875
56.625
55.9375
55.625
55.4375
55.0625
54.5
53.8125
53.0
52.125
51.25
50.3125
49.3125
48.375
47.5
46.6875
45.875
45.0
44.25
43.5625
42.9375
42.375
41.875
41.5
41.1875
40.875
41.0625
45.1875
62.0625
91.375
116.0
129.5
135.875
132.25
120.625
106.625
93.125
81.4375
71.9375
64.875
60.375
57.9375
56.75
56.3125
56.125
56.0625
55.8125
55.25
54.625
53.75
52.8125
51.8125
50.8125
49.75
48.75
47.75
46.8125
45.875
45.0625
44.25
43.5
42.8125
42.3125
41.75
41.1875
40.75
40.6875
43.375
57.25
86.1875
114.75
131.4375
139.9375
139.125
129.9375
116.6875
102.4375
89.375
78.1875
69.375
63.3125
59.8125
58.0625
57.1875
56.8125
56.625
56.3125
55.8125
55.25
54.4375
53.5625
52.5625
51.375
50.25
49.1875
48.25
47.25
46.3125
45.4375
44.6875
43.875
43.125
42.5625
42.1875
41.6875
41.0625
40.5625
40.875
44.6875
61.625
91.125
115.9375
130.625
136.25
130.4375
118.5
104.3125
91.0
80.1875
70.8125
63.8125
59.6875
57.3125
55.875
55.8125
55.5625
55.375
55.1875
54.5
53.75
53.0625
52.25
51.25
50.25
49.25
48.0625
46.875
46.1875
45.375
44.4375
43.6875
43.0625
42.375
41.8125
41.5
41.1875
40.8125
40.8125
42.0
49.8125
72.6875
103.5625
126.25
138.8125
141.75
134.25
121.125
106.625
93.25
81.8125
72.4375
65.625
61.5
59.1875
58.125
57.6875
57.5
57.25
56.8125
56.3125
55.5
54.625
53.5625
52.4375
51.3125
50.125
49.125
48.1875
47.1875
46.3125
45.4375
44.625
43.9375
43.3125
42.6875
42.0625
41.5
41.125
40.9375
43.375
57.1875
86.8125
116.6875
135.0
144.5
144.5
136.5625
123.625
108.75
95.0
83.0625
73.4375
66.8125
62.8125
60.5625
59.5625
58.9375
58.5625
58.125
57.5625
56.875
56.0
55.0
53.9375
52.875
51.6875
50.5
49.4375
48.375
47.4375
46.5
45.625
44.8125
44.125
43.375
42.8125
42.1875
41.6875
41.25
41.1875
43.875
57.625
85.8125
113.5625
130.5625
138.75
136.4375
125.875
112.0
97.5
84.6875
74.0625
65.9375
60.6875
57.875
56.625
56.1875
56.125
56.0625
55.8125
55.3125
54.6875
53.8125
52.875
51.875
50.875
49.8125
48.6875
47.5625
46.5625
45.5625
44.75
44.0
43.25
42.5
41.875
41.3125
40.8125
40.375
40.0
39.8125
41.0
49.875
73.9375
103.375
123.25
134.0625
134.5625
124.8125
111.125
97.1875
84.875
74.75
66.75
61.0
57.9375
56.375
55.625
55.375
55.1875
55.0625
54.75
54.25
53.75
53.0
52.125
51.1875
50.25
49.3125
48.375
47.4375
46.6875
46.125
45.375
44.6875
44.0625
43.5
42.8125
42.25
41.75
41.375
41.25
42.875
53.25
79.375
110.0625
130.5625
140.8125
140.9375
132.4375
119.125
104.25
91.125
80.0625
71.0
64.625
60.9375
59.0
58.25
57.9375
57.6875
57.375
57.0
56.375
55.5625
54.625
53.5625
52.5
51.375
50.1875
49.0625
48.0625
47.125
46.1875
45.375
44.625
43.875
43.25
42.625
42.0625
41.4375
40.9375
40.75
43.25
56.9375
86.75
116.875
135.625
145.6875
145.3125
135.9375
122.0625
107.0
93.375
81.625
72.25
65.6875
61.9375
59.9375
59.125
58.875
58.625
58.1875
57.5625
56.8125
55.875
54.8125
53.6875
52.4375
51.25
50.125
49.0
47.875
46.875
45.875
45.0625
44.3125
43.625
42.875
42.3125
41.8125
41.25
40.75
40.625
42.75
54.875
82.3125
110.625
127.9375
136.6875
135.3125
125.5625
112.5
98.5
85.9375
75.4375
67.1875
61.75
58.875
57.3125
56.75
56.6875
56.5625
56.3125
56.0
55.5
54.875
54.125
53.25
52.3125
51.25
50.3125
49.3125
48.25
47.375
46.625
45.8125
45.125
44.4375
43.8125
43.125
42.5625
42.0625
41.5
41.75
47.0
66.25
97.375
122.9375
137.6875
143.9375
139.25
127.4375
112.75
98.0625
85.5
75.1875
67.5625
62.9375
60.375
59.125
58.75
58.5
58.25
57.875
57.25
56.375
55.5
54.4375
53.25
52.1875
51.0625
49.8125
48.875
47.9375
46.875
46.0625
45.25
44.5
43.875
43.3125
42.6875
42.125
41.6875
41.3125
42.6875
52.9375
79.25
110.3125
131.625
143.625
145.125
136.9375
123.75
109.125
95.375
83.25
73.375
66.375
62.25
59.875
58.8125
58.4375
58.1875
57.875
57.4375
56.875
55.875
54.8125
53.75
52.625
51.5
50.375
49.1875
48.0625
47.125
46.125
45.125
44.375
43.625
42.875
42.375
41.875
41.3125
40.8125
40.5
42.0625
52.6875
79.0625
108.625
127.1875
136.4375
136.0
126.75
113.3125
98.9375
86.125
75.5
67.0
61.3125
58.25
56.75
56.125
56.0625
55.9375
55.75
55.3125
54.75
53.9375
53.0625
52.0
50.9375
49.9375
48.875
47.875
47.0
46.125
45.25
44.5
43.75
43.0
42.4375
41.9375
41.375
41.0
40.625
40.4375
42.5
54.5
81.8125
110.6875
128.8125
137.625
136.0
125.8125
112.0
98.125
86.0
75.75
67.5625
61.875
58.875
57.375
56.875
56.8125
56.75
56.625
56.125
55.5
54.8125
53.8125
52.75
51.6875
50.625
49.5625
48.625
47.625
46.6875
45.9375
45.125
44.3125
43.625
43.0
42.4375
41.9375
41.375
41.0
41.3125
46.8125
66.9375
98.8125
124.75
140.25
145.9375
140.9375
129.375
114.375
99.5625
86.875
76.25
68.25
63.25
60.375
58.9375
58.3125
58.0
57.75
57.4375
56.8125
56.0625
55.25
54.3125
53.3125
52.25
51.125
50.125
49.0625
48.0
47.0625
46.0625
45.1875
44.5
43.8125
43.125
42.5
41.9375
41.3125
40.9375
41.875
49.6875
72.875
103.1875
124.6875
136.5
138.75
130.6875
117.1875
102.1875
88.625
77.5625
68.5625
62.1875
58.625
56.8125
56.0
55.75
55.5625
55.25
54.8125
54.25
53.625
52.8125
51.9375
50.9375
49.9375
48.875
47.8125
46.75
45.75
44.9375
44.0
43.25
42.4375
41.6875
41.1875
40.6875
40.25
40.0
39.8125
41.3125
52.0
78.4375
107.1875
125.5
135.9375
135.5625
125.8125
112.75
98.8125
86.25
75.75
67.4375
61.875
58.8125
57.25
56.5
56.1875
56.0
55.8125
55.5625
55.125
54.5
53.75
52.8125
51.875
50.9375
50.0
49.0625
48.25
47.4375
46.625
45.875
45.125
44.4375
43.8125
43.25
42.75
42.375
42.0
43.125
51.75
75.9375
106.75
129.25
142.0625
143.875
135.5625
122.4375
107.8125
94.0625
82.3125
72.625
65.5625
61.3125
59.125
58.125
57.8125
57.5625
57.4375
57.125
56.625
55.875
55.0625
54.0625
53.0
51.875
50.75
49.6875
48.5625
47.5625
46.6875
45.8125
45.0625
44.375
43.75
43.125
42.5625
42.0
41.6875
43.4375
55.0625
83.4375
115.0
136.0625
148.125
149.875
142.9375
130.5
115.5
101.125
88.125
77.4375
69.3125
64.1875
61.3125
59.9375
59.5
59.3125
59.0
58.4375
57.75
56.9375
56.0625
55.0625
54.0
52.875
51.75
50.625
49.5
48.4375
47.4375
46.5
45.6875
44.875
44.1875
43.5625
43.0625
42.5625
42.1875
43.625
54.25
80.9375
111.6875
132.25
142.875
142.75
133.875
120.4375
105.1875
91.5625
80.125
71.125
64.875
61.25
59.25
58.3125
57.875
57.625
57.25
56.75
56.0625
55.1875
54.25
53.25
52.125
51.125
50.0625
48.9375
47.9375
46.9375
46.0625
45.1875
44.4375
43.75
43.0625
42.4375
41.9375
41.4375
40.9375
41.0625
45.5
63.5
93.875
119.0625
133.625
139.125
133.4375
121.0
106.3125
92.1875
80.25
70.75
63.5
59.125
56.9375
56.0625
55.75
55.75
55.5625
55.125
54.6875
54.0625
53.3125
52.4375
51.4375
50.4375
49.4375
48.5
47.5
46.6875
45.9375
45.25
44.5625
44.0
43.5
43.1875
42.8125
42.5625
42.3125
42.1875
43.875
54.75
81.5
111.6875
131.4375
141.5
141.3125
131.9375
118.0625
103.3125
90.125
78.875
69.9375
63.75
60.125
58.375
57.6875
57.4375
57.3125
57.125
56.8125
56.3125
55.5625
54.6875
53.6875
52.5625
51.375
50.25
49.25
48.25
47.375
46.375
45.5625
44.8125
44.125
43.4375
42.9375
42.375
41.875
41.5625
41.8125
47.0
67.125
100.0625
126.8125
142.375
148.25
143.375
132.6875
118.1875
103.0625
89.8125
78.6875
70.0625
64.5
61.4375
59.9375
59.375
59.1875
58.9375
58.5625
57.9375
57.3125
56.4375
55.4375
54.3125
53.125
51.9375
50.6875
49.5625
48.625
47.75
46.8125
46.0
45.1875
44.4375
43.5
42.75
42.0625
41.5625
41.1875
41.5625
47.9375
69.5625
101.1875
124.625
138.1875
142.375
135.5
122.625
108.0
93.9375
81.875
72.0625
64.6875
60.25
57.875
56.8125
56.3125
56.125
55.8125
55.4375
55.0
54.375
53.5625
52.6875
51.6875
50.625
49.5625
48.5625
47.5
46.625
45.8125
44.9375
44.0625
43.3125
42.625
42.125
41.625
41.125
40.8125
40.5
41.0625
48.0
70.5625
102.0625
125.375
139.1875
143.375
136.5625
123.6875
108.625
94.4375
82.5625
72.875
65.75
61.375
59.1875
58.125
57.6875
57.5
57.375
57.0625
56.6875
56.0625
55.375
54.4375
53.4375
52.375
51.1875
50.125
49.1875
48.1875
47.3125
46.4375
45.5625
44.8125
44.0625
43.25
42.5625
41.9375
41.4375
41.25
43.6875
57.0625
86.5625
117.5
137.125
147.4375
147.375
138.625
124.75
109.3125
95.3125
83.1875
73.5
66.625
62.5
60.25
59.125
58.5625
58.125
57.5625
56.9375
56.25
55.4375
54.5
53.5625
52.5
51.375
50.1875
49.125
48.125
47.0625
46.125
45.375
44.625
43.8125
43.1875
42.5625
42.0625
41.5
40.875
40.625
42.375
53.9375
81.3125
110.0
128.1875
137.4375
136.0625
125.8125
112.125
97.6875
84.75
74.125
65.9375
60.4375
57.375
55.75
54.9375
54.5625
54.3125
54.0
53.5625
53.0
52.25
51.375
50.4375
49.4375
48.4375
47.5625
46.5625
45.5625
44.625
43.8125
43.0
42.1875
41.4375
40.8125
40.1875
39.6875
39.1875
38.875
38.6875
40.0
49.375
74.75
105.25
125.5625
136.0625
136.3125
127.5625
114.3125
100.25
87.875
77.4375
68.875
62.875
59.5
57.625
56.75
56.375
56.25
56.0
55.5625
54.9375
54.1875
53.4375
52.5625
51.625
50.625
49.625
48.6875
47.6875
46.6875
45.875
45.125
44.4375
43.75
43.0625
42.375
41.8125
41.25
40.625
40.1875
41.375
51.0
76.75
108.5625
129.9375
140.75
142.75
135.5
122.5625
107.6875
93.8125
82.0
72.3125
65.1875
60.875
58.4375
57.0625
56.5
56.1875
55.75
55.3125
54.6875
53.9375
53.0625
52.125
51.1875
50.25
49.1875
48.125
47.0625
46.1875
45.3125
44.5
43.75
43.0625
42.4375
41.8125
41.25
40.75
40.1875
39.6875
39.8125
44.5
62.125
92.0625
116.9375
129.8125
133.6875
127.3125
114.375
100.25
86.9375
75.8125
67.0
60.5
56.625
54.5
53.4375
53.0
52.875
52.75
52.4375
52.0625
51.4375
50.75
49.875
49.0625
48.1875
47.3125
46.4375
45.5625
44.5625
43.6875
42.875
42.0625
41.4375
40.75
40.125
39.5
39.0
38.5
38.0
37.75
39.3125
49.375
74.5625
103.25
121.1875
129.4375
127.9375
117.8125
104.5625
91.5
79.6875
69.875
62.25
56.9375
54.1875
52.8125
52.3125
52.1875
52.25
52.125
51.8125
51.5
51.125
50.5625
49.9375
49.25
48.5
47.75
46.9375
46.1875
45.4375
44.75
44.125
43.5
42.875
42.125
41.5625
41.0
40.5
40.0
39.5625
40.25
46.8125
68.125
99.1875
123.1875
136.1875
139.125
131.5625
118.125
103.125
89.625
78.4375
69.3125
62.5625
58.5625
56.4375
55.375
55.0
54.8125
54.6875
54.3125
53.875
53.125
52.25
51.375
50.25
49.25
48.25
47.25
46.25
45.3125
44.4375
43.6875
42.9375
42.25
41.625
41.0625
40.5625
40.0625
39.5
39.125
39.4375
45.1875
65.5625
97.5
122.9375
137.0625
141.9375
136.4375
124.5
109.625
95.5
83.375
73.125
65.375
60.3125
57.375
55.75
55.0
54.625
54.375
54.0
53.4375
52.8125
51.9375
51.0625
50.0625
49.0625
48.0625
47.0625
46.0625
45.125
44.25
43.375
42.5
41.75
41.0625
40.4375
39.875
39.375
38.875
38.4375
38.25
40.875
54.5625
82.875
110.3125
126.0625
131.625
126.25
114.375
101.0625
88.0
77.125
68.3125
61.5
57.25
54.9375
53.625
53.0
52.625
52.375
52.0625
51.625
51.0625
50.375
49.5625
48.75
47.875
46.9375
45.9375
45.0625
44.1875
43.375
42.5625
41.8125
41.25
40.75
40.25
39.875
39.6875
39.5
39.4375
39.5625
42.375
55.875
83.5625
110.875
127.875
136.25
133.75
123.125
109.375
95.1875
83.0625
73.0625
65.1875
59.6875
56.6875
55.375
54.6875
54.5
54.4375
54.3125
54.0625
53.4375
52.8125
52.0
51.125
50.1875
49.1875
48.0625
47.0
46.0
45.125
44.1875
43.3125
42.5625
41.875
41.25
40.75
40.25
39.8125
39.3125
39.3125
42.9375
59.5625
90.9375
119.3125
135.8125
143.125
140.375
130.1875
115.5
100.4375
87.5625
76.8125
68.3125
62.4375
59.1875
57.3125
56.4375
56.125
55.75
55.3125
54.9375
54.25
53.375
52.5
51.625
50.5
49.5
48.5
47.4375
46.4375
45.5625
44.6875
43.875
43.125
42.4375
41.75
41.1875
40.625
40.0625
39.625
39.5625
42.0625
55.25
83.25
111.3125
128.25
135.75
132.0
120.3125
106.75
92.9375
80.8125
71.0
63.125
57.875
55.1875
53.875
53.25
53.0625
53.0
52.875
52.5
52.0
51.3125
50.6875
49.75
48.6875
47.75
46.8125
45.8125
44.875
44.0625
43.125
42.375
41.625
40.8125
40.1875
39.625
39.125
38.6875
38.3125
37.875
38.8125
47.3125
70.8125
99.4375
118.1875
128.375
128.5625
119.125
106.4375
93.4375
81.625
71.75
63.9375
58.625
55.625
54.125
53.4375
53.125
52.9375
52.8125
52.5
52.0625
51.625
51.0625
50.375
49.625
48.875
48.0625
47.25
46.4375
45.625
44.8125
44.0625
43.25
42.5625
42.0
41.5
41.0
40.625
40.25
39.8125
40.8125
49.1875
72.875
104.125
125.9375
136.8125
138.25
130.5
117.25
102.3125
89.5
79.0
70.375
64.0625
60.375
58.125
57.25
57.0625
56.8125
57.0
56.6875
55.875
55.5625
55.0625
53.4375
51.6875
50.25
48.8125
48.25
48.375
48.1875
46.375
45.25
45.5
44.0625
43.625
43.875
43.375
42.8125
42.125
41.4375
42.625
51.4375
75.125
104.0
122.5625
133.8125
138.0
132.5625
122.6875
110.0625
96.75
85.75
75.625
68.0625
64.0625
61.125
58.875
57.5
56.75
57.75
57.625
56.1875
55.375
54.1875
52.9375
52.375
51.25
49.75
48.8125
48.0625
47.1875
46.25
45.125
44.625
44.25
43.6875
42.875
42.25
42.1875
42.3125
42.125
42.375
47.3125
65.875
93.5
113.0625
123.125
128.8125
125.375
115.3125
102.9375
90.0625
78.6875
69.5625
62.75
58.625
56.25
55.125
54.6875
54.1875
53.6875
53.25
52.75
52.125
51.4375
50.5625
49.625
48.875
47.9375
46.9375
46.0625
45.0625
44.25
43.5625
42.75
41.9375
41.25
40.625
40.0
39.5
39.125
38.6875
39.0
43.0
59.1875
86.8125
109.0625
120.6875
125.6875
121.875
111.6875
99.625
87.4375
76.875
68.125
61.625
57.625
55.5625
54.375
53.6875
53.25
52.875
52.5
51.9375
51.3125
50.625
49.875
49.0625
48.1875
47.1875
46.3125
45.4375
44.6875
44.0
43.25
42.625
41.9375
41.3125
40.8125
40.375
40.0625
39.8125
39.6875
40.0625
45.0625
63.5
92.75
115.5625
127.6875
132.625
129.0625
119.0625
106.3125
93.375
81.8125
72.375
65.0625
60.25
57.6875
56.375
55.75
55.25
54.875
54.5
54.0625
53.5625
52.8125
51.9375
50.9375
50.0625
49.0
47.9375
47.0625
46.125
45.375
44.6875
43.9375
43.125
42.375
41.75
41.25
40.6875
40.1875
39.875
40.9375
49.5625
73.6875
103.625
122.4375
132.3125
135.8125
130.6875
120.25
107.4375
94.4375
83.125
73.6875
66.6875
62.1875
59.5
57.9375
57.125
56.5625
56.0625
55.4375
54.6875
53.875
52.9375
52.0
51.0625
50.0625
49.0625
48.0
47.0
46.125
45.3125
44.4375
43.6875
43.125
42.5
41.875
41.25
40.6875
40.125
39.6875
40.1875
46.25
66.625
95.875
116.375
126.625
129.875
124.375
113.375
100.875
88.5625
77.6875
69.0
62.5625
58.625
56.375
55.125
54.5
54.0
53.5625
53.125
52.5625
51.875
51.0625
50.1875
49.25
48.3125
47.4375
46.5625
45.6875
44.75
43.875
43.0625
42.25
41.625
41.125
40.625
40.0625
39.4375
38.875
38.4375
38.4375
41.4375
55.25
82.0
106.0
118.25
122.9375
119.875
110.3125
98.375
86.8125
76.4375
67.8125
61.375
57.4375
55.375
54.1875
53.5625
53.3125
53.125
52.8125
52.5
52.125
51.625
51.0
50.3125
49.625
48.75
47.75
46.9375
46.125
45.25
44.375
43.5625
42.8125
42.125
41.5
40.9375
40.375
39.875
39.375
39.4375
42.5
56.9375
85.1875
111.0
124.1875
129.875
128.25
119.25
106.9375
94.4375
83.125
73.6875
66.3125
61.375
58.625
57.0625
56.1875
55.6875
55.25
54.75
54.1875
53.375
52.5
51.625
50.6875
49.6875
48.625
47.625
46.625
45.8125
45.0
44.1875
43.5
42.875
42.25
41.625
41.0625
40.5625
40.0
39.5
39.3125
41.9375
55.375
82.9375
108.9375
123.25
130.5
129.625
121.75
110.375
97.8125
86.25
76.125
67.875
62.1875
58.9375
57.125
56.1875
55.625
55.0625
54.5
53.9375
53.1875
52.375
51.5
50.625
49.75
48.8125
47.8125
46.8125
45.875
44.9375
44.0
43.1875
42.5
41.75
41.125
40.625
40.0
39.5
39.125
38.6875
39.25
45.0
65.0
93.0
112.0
122.125
125.3125
120.5625
110.4375
98.5
87.5
77.625
69.4375
63.5625
60.0625
58.0
56.6875
56.125
55.8125
55.1875
54.625
54.25
53.75
52.875
51.5625
50.6875
50.0625
48.9375
47.75
46.875
46.0
45.375
44.8125
43.1875
42.25
41.875
40.9375
40.125
39.5625
40.125
41.4375
40.5625
45.1875
67.6875
96.375
116.125
128.0625
132.75
127.5
116.125
102.375
89.5625
79.75
71.25
64.1875
60.25
58.0625
56.6875
56.0
55.5625
55.3125
54.9375
54.3125
53.5
52.5625
51.5625
50.5625
49.5
48.5625
47.5625
46.5625
45.625
44.75
43.8125
43.0
42.3125
41.5625
41.0625
40.4375
39.9375
39.4375
39.0
39.5
45.75
66.0625
95.3125
116.1875
127.5625
131.1875
125.125
113.8125
100.8125
88.375
77.8125
69.1875
62.9375
59.1875
57.0625
55.875
55.3125
54.8125
54.375
53.875
53.25
52.5625
51.75
50.9375
50.0625
49.125
48.125
47.0625
46.125
45.3125
44.5
43.75
43.0
42.3125
41.8125
41.375
40.875
40.4375
40.125
39.8125
40.375
45.625
64.1875
93.5625
116.125
128.5
132.8125
127.0
115.8125
102.75
89.8125
78.875
70.125
63.5625
59.5
57.3125
56.1875
55.8125
55.5625
55.25
54.875
54.25
53.625
52.875
52.0
51.125
50.125
49.125
48.125
47.1875
46.3125
45.5
44.6875
43.9375
43.1875
42.5625
41.9375
41.375
40.875
40.4375
40.125
41.3125
50.5625
75.9375
106.5625
126.75
137.875
140.1875
133.6875
121.75
107.4375
94.0625
82.6875
73.3125
66.375
62.125
59.8125
58.4375
57.75
57.25
56.8125
56.3125
55.625
54.75
53.875
52.875
51.8125
50.6875
49.6875
48.75
47.8125
46.9375
46.125
45.3125
44.5625
43.6875
43.0
42.375
41.8125
41.25
40.75
40.5
42.25
53.5
80.375
109.375
127.1875
136.375
136.0
126.9375
114.125
100.1875
87.6875
77.1875
68.625
62.6875
59.25
57.3125
56.3125
55.9375
55.625
55.3125
54.875
54.1875
53.4375
52.625
51.625
50.625
49.625
48.5625
47.5625
46.625
45.75
44.9375
44.1875
43.375
42.6875
42.0625
41.4375
40.875
40.4375
40.0625
39.875
42.25
55.0625
83.125
110.9375
127.0625
135.125
134.0625
124.4375
111.5
98.125
86.0
75.875
67.9375
62.5625
59.5625
58.0
57.3125
57.0
56.6875
56.3125
55.8125
55.125
54.375
53.5
52.4375
51.4375
50.375
49.375
48.4375
47.5625
46.625
45.8125
45.0625
44.25
43.5625
42.875
42.3125
41.8125
41.3125
40.9375
41.375
47.5625
68.6875
100.25
123.875
136.9375
142.5625
138.5
127.6875
113.875
99.8125
87.25
76.875
68.875
63.6875
60.8125
59.25
58.4375
57.9375
57.5
57.0625
56.4375
55.6875
54.875
54.0
53.0
51.9375
50.875
49.75
48.75
47.75
46.75
46.0
45.1875
44.375
43.75
43.125
42.5
41.9375
41.375
41.125
42.625
53.0
78.75
107.8125
126.5625
137.375
138.625
130.1875
117.25
103.3125
90.6875
79.875
70.9375
64.375
60.4375
58.25
57.0625
56.5625
56.1875
55.75
55.3125
54.6875
53.9375
53.0625
52.1875
51.25
50.1875
49.125
48.125
47.125
46.125
45.125
44.3125
43.5625
43.0
42.375
41.75
41.1875
40.5625
40.125
39.875
41.0
49.875
74.4375
103.9375
122.6875
132.625
134.125
126.4375
114.125
100.4375
87.8125
77.25
68.625
62.5
58.875
57.0
56.0
55.625
55.3125
54.9375
54.4375
53.8125
53.125
52.3125
51.4375
50.5625
49.625
48.625
47.625
46.6875
45.75
45.0625
44.3125
43.625
42.9375
42.3125
41.75
41.25
40.8125
40.4375
40.25
41.0
47.5625
69.0625
99.6875
121.875
134.5
138.6875
132.8125
121.25
107.3125
93.75
82.25
72.75
65.6875
61.1875
58.75
57.5625
57.125
56.8125
56.5625
56.1875
55.625
54.9375
54.0625
53.125
52.1875
51.125
50.0625
49.0625
48.0625
47.125
46.1875
45.4375
44.625
43.9375
43.25
42.625
42.0625
41.5
40.9375
40.625
41.1875
48.0625
70.8125
103.3125
127.0
140.8125
146.25
141.5625
130.6875
116.25
101.6875
88.6875
77.8125
69.5625
64.1875
61.125
59.375
58.5625
58.125
57.75
57.25
56.625
55.875
55.0
54.125
53.0625
52.0625
51.125
49.9375
48.9375
48.0625
47.125
46.3125
45.5625
44.8125
44.0625
43.5
42.9375
42.3125
41.8125
41.375
41.3125
44.75
60.5
90.25
117.0
132.4375
139.625
137.0
126.25
112.5
98.8125
86.3125
75.5625
67.375
61.875
58.5
56.875
56.1875
55.9375
56.0
55.5625
54.8125
54.6875
53.875
52.8125
51.9375
50.9375
49.6875
48.5625
47.625
46.5
45.625
44.8125
43.75
42.9375
42.3125
41.5625
40.8125
40.25
39.6875
38.9375
38.5625
39.4375
46.75
69.1875
99.1875
120.3125
132.1875
135.25
128.0
115.5625
101.5
88.125
77.0625
68.125
61.8125
58.25
56.3125
55.25
54.9375
54.625
54.125
53.8125
53.3125
52.625
51.9375
51.0625
50.125
49.3125
48.4375
47.4375
46.625
45.8125
45.0
44.3125
43.8125
43.3125
42.875
42.6875
42.375
42.125
41.9375
41.6875
42.0625
47.375
66.625
97.5
122.75
138.0625
144.0
139.375
128.125
113.4375
99.0
86.5625
76.125
68.0625
62.6875
59.8125
58.375
57.75
57.5625
57.3125
56.9375
56.5
55.6875
54.8125
53.9375
52.8125
51.6875
50.6875
49.625
48.5625
47.625
46.6875
45.6875
44.875
44.125
43.4375
42.875
42.3125
41.8125
41.3125
40.9375
41.0625
45.75
64.875
97.625
125.25
141.4375
148.875
146.1875
136.0625
121.5625
106.5
93.125
81.75
72.625
66.3125
62.6875
60.4375
59.4375
58.9375
58.4375
57.9375
57.3125
56.5
55.625
54.625
53.5
52.375
51.3125
50.25
49.1875
48.1875
47.25
46.375
45.5
44.75
44.0
43.3125
42.75
42.1875
41.625
41.125
41.125
44.75
61.0
91.5
118.5625
134.75
141.9375
138.0
127.0
112.8125
98.25
85.8125
75.25
66.875
61.3125
58.25
56.6875
56.125
55.875
55.75
55.4375
55.0
54.375
53.625
52.75
51.75
50.8125
49.75
48.75
47.75
46.75
45.8125
44.9375
44.0625
43.3125
42.625
42.0
41.4375
40.875
40.375
39.875
39.6875
41.25
52.125
78.8125
108.5
126.9375
135.625
134.875
125.75
112.5
98.3125
85.5
74.8125
66.4375
60.8125
57.625
56.0
55.375
55.25
55.25
55.0625
54.75
54.25
53.625
52.875
52.0
51.0625
50.0625
49.125
48.25
47.5
46.75
45.9375
45.25
44.5625
43.8125
43.1875
42.5625
42.0
41.5625
41.125
40.875
42.75
54.0625
81.25
111.1875
130.3125
139.8125
139.375
130.5
117.375
102.875
89.6875
78.625
69.625
63.25
59.4375
57.5625
56.6875
56.5625
56.375
56.1875
55.8125
55.1875
54.5
53.6875
52.75
51.6875
50.5625
49.5
48.4375
47.4375
46.5
45.625
44.75
44.0
43.25
42.5625
42.0
41.4375
41.0
40.5625
40.5
43.625
58.6875
89.25
118.6875
136.1875
144.875
143.6875
134.625
121.375
106.625
93.0625
81.375
71.875
65.3125
61.5625
59.4375
58.5625
58.125
57.8125
57.4375
56.8125
56.125
55.3125
54.375
53.25
52.125
50.9375
49.8125
48.75
47.6875
46.6875
45.8125
45.0
44.1875
43.5
42.75
42.0625
41.4375
40.875
40.375
40.1875
42.5
55.4375
84.1875
113.5
131.3125
140.25
138.5625
128.25
114.4375
99.6875
86.75
76.0625
67.5
61.6875
58.625
57.125
56.5
56.25
56.0
55.625
55.1875
54.5
53.625
52.75
51.6875
50.625
49.5625
48.5625
47.5
46.5
45.5625
44.6875
43.8125
43.0625
42.4375
41.8125
41.1875
40.6875
40.125
39.625
39.4375
40.875
50.8125
76.625
106.5
125.1875
134.8125
134.4375
124.8125
111.75
98.3125
86.1875
76.125
67.9375
62.25
59.0625
57.3125
56.5625
56.25
56.0
55.75
55.25
54.625
53.8125
52.9375
52.0625
51.0
49.9375
48.8125
47.75
46.8125
45.875
45.0
44.1875
43.5
42.875
42.3125
41.6875
41.1875
40.6875
40.1875
40.0625
42.625
56.5
86.125
115.9375
134.125
142.3125
140.3125
131.0625
117.5
102.6875
89.6875
78.5
69.5
63.3125
59.8125
57.9375
57.0625
56.8125
56.625
56.3125
55.875
55.1875
54.5
53.5625
52.5
51.4375
50.375
49.25
48.1875
47.125
46.125
45.1875
44.375
43.625
42.9375
42.3125
41.75
41.25
40.75
40.25
40.0
41.875
53.5
81.0
110.875
129.3125
138.625
137.8125
127.6875
113.3125
98.4375
85.4375
74.8125
66.375
60.5
57.25
55.5625
54.875
54.6875
54.625
54.4375
54.0625
53.5625
52.8125
51.9375
51.0
50.0
49.0
47.9375
46.8125
45.8125
44.9375
44.125
43.3125
42.5625
41.875
41.3125
40.75
40.1875
39.625
39.0625
38.6875
39.25
45.5625
66.4375
97.125
120.4375
133.1875
135.5
126.875
113.375
99.1875
86.375
75.8125
67.125
60.8125
57.125
55.25
54.4375
54.125
54.0625
53.9375
53.625
53.1875
52.625
51.875
51.0625
50.125
49.25
48.3125
47.4375
46.5625
45.875
45.1875
44.4375
43.8125
43.25
42.6875
42.1875
41.75
41.1875
40.75
40.3125
40.875
47.375
68.625
99.875
123.625
136.3125
138.3125
130.1875
117.375
103.0625
89.6875
78.5
69.5
62.9375
59.0
56.9375
55.875
55.5
55.3125
55.1875
54.875
54.375
53.6875
52.875
51.875
50.8125
49.75
48.6875
47.6875
46.75
45.9375
45.125
44.25
43.4375
42.6875
42.0625
41.5
40.9375
40.4375
40.0625
39.6875
40.9375
50.375
76.0625
107.8125
128.5
140.25
143.125
135.5
122.6875
107.875
93.9375
81.9375
72.0
64.8125
60.375
58.0
56.875
56.375
56.25
56.0
55.6875
55.1875
54.375
53.5625
52.625
51.5
50.3125
49.0625
48.0625
47.0625
46.0625
45.1875
44.25
43.4375
42.6875
41.9375
41.25
40.625
40.125
39.6875
39.375
40.375
48.5625
72.75
103.875
124.75
135.5625
136.875
128.8125
116.0
101.4375
88.1875
77.0
67.8125
61.25
57.4375
55.5625
54.6875
54.5625
54.5
54.375
54.0
53.5
52.8125
51.9375
51.0625
50.0625
48.9375
47.875
46.875
45.875
45.0
44.1875
43.3125
42.5625
41.875
41.125
40.5
40.0
39.5625
39.125
38.8125
38.8125
41.9375
57.0
86.625
113.5625
129.3125
136.5
132.6875
121.25
107.1875
93.1875
81.3125
71.6875
64.1875
59.1875
56.5
55.1875
54.6875
54.5625
54.5
54.3125
53.8125
53.1875
52.5
51.625
50.75
49.75
48.6875
47.6875
46.875
46.0
45.125
44.3125
43.5625
42.9375
42.3125
41.625
41.0
40.5
40.0625
39.625
39.3125
41.5625
54.5
83.5625
113.9375
133.0
142.5
141.3125
132.0
118.5
103.75
90.4375
79.0625
69.8125
63.125
59.25
57.1875
56.25
55.9375
55.6875
55.375
54.9375
54.4375
53.75
52.9375
52.0625
51.0625
50.0
48.875
47.75
46.6875
45.625
44.625
43.75
42.9375
42.1875
41.4375
40.75
40.25
39.75
39.25
38.9375
39.125
44.0625
63.0625
93.8125
118.6875
132.3125
136.75
130.375
117.875
103.75
90.375
78.875
69.625
62.625
58.25
55.875
54.75
54.1875
53.9375
53.8125
53.625
53.125
52.5
51.75
50.875
50.0
48.9375
47.9375
46.875
45.8125
44.8125
44.0625
43.25
42.5
41.8125
41.0625
40.375
39.8125
39.25
38.8125
38.4375
38.125
38.875
46.5625
69.9375
100.8125
121.8125
132.625
133.75
125.6875
113.5
99.9375
87.5625
77.0
68.25
61.9375
58.1875
56.1875
55.25
54.875
54.6875
54.5
54.375
53.9375
53.375
52.75
51.9375
51.0625
50.0
48.875
47.875
46.9375
45.875
45.0625
44.25
43.5625
42.875
42.25
41.6875
41.1875
40.6875
40.25
39.9375
40.1875
45.5
65.0625
96.875
122.75
137.4375
143.0625
138.4375
126.9375
112.1875
97.5625
84.9375
74.375
66.25
60.8125
57.9375
56.5
56.0625
56.0625
55.9375
55.6875
55.3125
54.5625
53.6875
52.8125
51.8125
50.75
49.6875
48.625
47.5625
46.5625
45.625
44.8125
44.0625
43.3125
42.5625
42.0
41.3125
40.8125
40.3125
39.875
39.8125
42.3125
55.5
84.625
114.5
131.3125
139.3125
138.0625
128.0
114.0
99.4375
86.5
75.75
67.25
61.3125
57.875
56.125
55.5
55.375
55.25
55.0625
54.6875
54.0625
53.25
52.375
51.3125
50.25
49.1875
48.125
47.0625
46.125
45.1875
44.375
43.5625
42.8125
42.1875
41.4375
40.75
40.1875
39.6875
39.1875
38.8125
39.375
46.0
67.875
99.5
122.375
134.4375
137.6875
130.625
117.75
103.1875
89.5625
78.1875
68.9375
61.9375
57.8125
55.6875
54.8125
54.4375
54.25
54.125
53.8125
53.3125
52.625
51.75
50.875
49.875
48.875
47.8125
46.8125
45.875
44.875
44.0625
43.3125
42.625
41.9375
41.3125
40.8125
40.25
39.75
39.4375
39.125
39.125
42.3125
57.9375
88.375
115.8125
132.1875
140.625
138.5
128.3125
114.625
100.625
87.8125
76.875
68.375
62.4375
59.0625
57.25
56.4375
56.1875
56.0625
55.8125
55.375
54.8125
54.1875
53.25
52.3125
51.375
50.3125
49.3125
48.375
47.375
46.375
45.5625
44.75
43.9375
43.3125
42.75
42.0625
41.5
41.0
40.5
40.375
44.1875
60.875
92.125
120.75
138.1875
146.0625
143.4375
133.1875
118.3125
102.9375
89.75
78.5
69.6875
63.875
60.5
58.625
57.8125
57.375
56.9375
56.625
56.125
55.375
54.5625
53.6875
52.75
51.75
50.75
49.625
48.5
47.5625
46.625
45.5625
44.75
44.0
43.25
42.625
42.0625
41.5
41.0625
40.625
40.4375
43.0
56.6875
85.375
113.9375
130.75
138.0
135.125
124.5625
110.5625
96.1875
84.0
73.9375
65.9375
60.5
57.5625
56.0
55.1875
54.9375
54.75
54.4375
54.125
53.5
52.6875
51.875
51.0
50.0
49.0625
48.125
47.125
46.25
45.3125
44.5
43.75
43.0
42.25
41.625
41.0625
40.5
40.0
39.5625
39.125
40.1875
48.9375
73.3125
103.5625
123.1875
133.0
133.5625
125.0625
112.125
98.125
85.625
75.3125
67.0
61.0
57.5625
55.8125
54.875
54.5
54.3125
54.0625
53.6875
53.3125
52.6875
51.9375
51.1875
50.3125
49.375
48.5
47.625
46.875
46.125
45.4375
44.75
44.0
43.4375
42.875
42.375
42.0
41.5625
41.1875
40.75
41.25
47.625
68.8125
100.1875
124.1875
137.1875
139.875
132.75
120.1875
105.5625
91.75
80.0
70.375
63.375
59.0625
56.75
55.75
55.375
55.3125
55.25
54.9375
54.5
53.875
53.0625
52.1875
51.1875
50.1875
49.125
48.0
47.0625
46.1875
45.3125
44.5625
43.75
43.0
42.25
41.625
41.0625
40.5625
40.125
39.75
39.6875
42.875
58.3125
89.5625
119.3125
137.0
145.5625
143.3125
133.375
119.1875
104.25
90.9375
79.625
70.5
64.125
60.375
58.1875
57.0625
56.625
56.25
55.8125
55.25
54.5625
53.8125
53.0
52.0625
51.0
49.9375
48.875
47.9375
46.9375
45.9375
45.0
44.125
43.3125
42.5625
41.875
41.1875
40.5625
40.0625
39.625
39.25
39.4375
44.375
63.6875
95.375
120.1875
133.4375
138.125
133.125
121.875
107.6875
93.8125
82.0
72.1875
64.75
60.0625
57.375
56.0625
55.3125
54.875
54.5
54.0625
53.4375
52.75
52.0
51.1875
50.25
49.3125
48.25
47.25
46.3125
45.4375
44.5625
43.75
43.0625
42.3125
41.5
40.75
40.125
39.75
39.375
38.9375
38.6875
39.5
46.9375
70.125
101.375
123.0
135.125
137.375
129.8125
117.75
104.0
90.9375
79.875
70.5625
63.5
59.0625
56.75
55.625
55.1875
55.0
54.75
54.4375
53.875
53.25
52.4375
51.5625
50.5625
49.625
48.625
47.625
46.625
45.8125
45.0
44.1875
43.5
42.75
42.0625
41.375
40.75
40.25
39.8125
39.3125
39.25
41.875
55.75
85.9375
116.625
134.125
142.3125
141.0
132.0
118.75
104.0
90.8125
79.5
70.3125
63.9375
60.125
58.0625
57.0
56.5625
56.1875
55.6875
55.125
54.4375
53.6875
52.875
51.875
50.75
49.6875
48.625
47.625
46.625
45.6875
44.875
44.1875
43.4375
42.75
42.0625
41.375
40.8125
40.3125
39.8125
39.375
39.625
44.3125
62.4375
93.0625
118.75
132.75
137.8125
132.375
119.875
105.1875
91.5625
80.1875
70.75
63.3125
58.4375
55.875
54.5625
54.125
53.9375
53.8125
53.5625
53.125
52.5625
51.8125
50.9375
50.0
49.0625
48.0625
47.0625
46.125
45.1875
44.375
43.5625
42.8125
42.125
41.4375
40.75
40.125
39.5625
39.0625
38.625
38.4375
39.625
48.625
73.0625
102.8125
123.0625
133.9375
134.0
124.5625
111.8125
97.9375
85.25
74.8125
66.5625
60.75
57.4375
55.5625
54.6875
54.25
54.0
53.6875
53.3125
52.8125
52.25
51.625
50.875
50.125
49.3125
48.5625
47.6875
46.875
46.0625
45.3125
44.625
44.0
43.375
42.625
42.0625
41.4375
40.9375
40.4375
40.0625
41.0
49.125
72.9375
104.1875
125.9375
137.3125
139.625
132.5625
120.25
105.4375
91.5
80.0625
70.75
63.9375
59.8125
57.4375
56.3125
55.75
55.4375
55.125
54.75
54.25
53.625
52.75
51.875
50.9375
49.9375
48.9375
47.9375
46.9375
46.0
45.0625
44.25
43.5
42.8125
42.25
41.625
41.0
40.5
40.0
39.625
41.0
50.75
76.875
108.5
129.5
141.0625
142.75
135.5
123.0
108.25
94.375
82.375
72.625
65.625
61.375
59.0
57.75
57.1875
56.875
56.5
55.9375
55.25
54.375
53.4375
52.4375
51.4375
50.3125
49.1875
48.125
47.0625
46.125
45.1875
44.25
43.4375
42.6875
42.0625
41.4375
40.875
40.3125
39.8125
39.3125
40.1875
48.25
71.875
102.6875
124.0625
135.5625
137.1875
128.8125
115.625
101.375
88.3125
77.1875
68.25
61.8125
58.0625
56.0
55.0
54.5625
54.1875
53.9375
53.5
52.875
52.1875
51.4375
50.625
49.75
48.8125
47.9375
47.0625
46.1875
45.4375
44.625
43.875
43.125
42.5625
42.0
41.5
41.125
40.625
40.3125
40.1875
41.0
48.1875
69.9375
100.1875
122.625
134.3125
136.25
128.0625
115.1875
101.125
88.0625
77.3125
68.625
62.0625
58.1875
56.125
55.25
54.875
54.6875
54.6875
54.5625
54.125
53.375
52.4375
51.4375
50.5625
49.625
48.5625
47.5625
46.625
45.8125
45.0
44.1875
43.4375
42.6875
42.0625
41.5625
41.0
40.5
40.125
39.6875
40.8125
50.4375
76.375
107.9375
128.375
138.9375
140.1875
132.375
120.0
105.5625
92.4375
81.25
71.75
64.6875
60.375
58.0625
56.9375
56.5625
56.25
56.0
55.5625
54.9375
54.1875
53.3125
52.375
51.3125
50.25
49.25
48.125
47.125
46.0625
45.125
44.3125
43.5
42.6875
42.0
41.4375
40.875
40.25
39.75
39.25
39.4375
44.3125
63.125
94.375
119.3125
132.3125
136.25
129.875
117.4375
103.125
89.5
78.25
69.0625
62.3125
58.3125
56.25
55.3125
54.9375
54.6875
54.375
54.0
53.5
52.875
52.0
51.125
50.1875
49.1875
48.125
47.0625
46.125
45.125
44.25
43.5
42.75
42.0625
41.3125
40.6875
40.125
39.625
39.1875
38.75
38.4375
39.0
45.9375
68.375
98.8125
119.4375
130.4375
132.6875
124.5
112.0625
98.75
86.3125
75.875
67.3125
61.0
57.3125
55.5625
54.8125
54.625
54.6875
54.5625
54.375
53.9375
53.25
52.5
51.5625
50.5
49.4375
48.375
47.375
46.375
45.4375
44.5
43.75
43.0
42.3125
41.75
41.1875
40.625
40.125
39.8125
39.4375
39.4375
43.25
60.125
91.125
118.5625
134.5625
141.6875
138.5625
127.625
112.75
98.1875
85.875
75.375
67.0625
61.375
58.1875
56.4375
55.6875
55.4375
55.3125
54.9375
54.5625
54.0
53.25
52.375
51.4375
50.4375
49.4375
48.3125
47.3125
46.3125
45.375
44.5625
43.75
43.0
42.375
41.6875
41.0625
40.5625
40.0625
39.625
39.3125
40.0
47.0
69.0625
100.125
122.9375
135.125
137.6875
130.1875
117.0
101.9375
88.3125
77.125
68.1875
61.6875
57.8125
55.875
54.875
54.5625
54.375
54.0
53.5625
53.125
52.5
51.75
50.875
49.9375
48.9375
47.9375
46.9375
45.9375
45.0
44.1875
43.375
42.5625
41.8125
41.125
40.4375
39.9375
39.4375
39.0
38.5
38.1875
39.3125
47.75
71.5
101.5
121.5625
131.5
131.4375
122.4375
109.875
96.25
83.625
73.3125
65.125
59.375
56.0
54.3125
53.5
53.125
53.0
52.875
52.5625
52.1875
51.75
51.125
50.375
49.6875
49.0625
48.4375
47.875
47.3125
46.8125
46.25
45.625
45.0
44.3125
43.6875
43.0625
42.375
41.9375
41.5625
41.125
41.25
45.5
62.375
92.1875
119.125
134.875
140.25
135.4375
124.625
110.875
96.875
84.875
75.0625
67.5625
62.75
60.125
58.75
58.1875
57.9375
57.75
57.375
56.9375
56.25
55.4375
54.5625
53.4375
52.3125
51.125
50.0
48.9375
47.9375
46.9375
46.0625
45.1875
44.25
43.4375
42.6875
42.0625
41.4375
40.8125
40.375
40.0625
42.0
53.75
81.5
112.5
132.5625
142.875
143.0625
134.6875
121.3125
106.25
93.0
81.6875
72.1875
65.125
60.75
58.25
57.0
56.375
56.0
55.5625
55.0625
54.4375
53.5
52.6875
51.6875
50.625
49.5
48.375
47.3125
46.25
45.3125
44.4375
43.5625
42.875
42.125
41.5
40.875
40.25
39.75
39.3125
38.875
38.8125
41.75
56.0625
84.25
110.4375
125.375
131.1875
126.375
114.6875
101.4375
88.6875
77.625
68.4375
61.3125
56.5625
54.25
53.1875
52.8125
52.75
52.8125
52.625
52.25
51.5625
50.8125
50.0
49.1875
48.1875
47.1875
46.125
45.125
44.25
43.375
42.5625
41.8125
41.0625
40.375
39.625
39.0
38.625
38.4375
38.125
38.0
38.5625
44.4375
64.625
95.0
118.3125
131.0625
134.9375
128.4375
116.25
102.375
89.375
78.5
69.5
62.5
58.0625
55.9375
54.8125
54.5
54.5
54.4375
54.125
53.625
53.0625
52.375
51.5
50.5625
49.625
48.625
47.625
46.625
45.6875
44.875
44.125
43.4375
42.8125
42.125
41.5
40.75
40.25
39.75
39.3125
39.375
42.75
58.3125
88.6875
117.4375
134.0625
140.9375
138.625
128.75
114.625
99.6875
86.875
76.0625
67.5
61.6875
58.5
56.75
55.9375
55.6875
55.5
55.125
54.75
54.1875
53.375
52.5
51.625
50.625
49.5
48.5
47.4375
46.4375
45.5
44.625
43.8125
43.0625
42.4375
41.8125
41.25
40.6875
40.0625
39.5625
39.25
40.0625
47.4375
69.6875
100.5625
122.8125
133.6875
134.875
126.75
114.25
100.125
86.9375
76.25
67.5625
61.3125
57.6875
55.6875
54.6875
54.3125
54.0
53.6875
53.3125
52.75
51.9375
51.25
50.375
49.375
48.5
47.4375
46.375
45.5625
44.6875
43.75
43.0625
42.3125
41.5625
40.9375
40.3125
39.75
39.25
38.75
38.3125
38.0
38.5
44.375
64.5625
94.75
117.125
128.625
131.3125
124.0625
111.375
97.5625
84.8125
74.25
65.8125
59.3125
55.375
53.625
52.75
52.4375
52.5
52.4375
52.25
52.0
51.4375
50.75
50.0625
49.25
48.375
47.5
46.625
45.6875
44.875
44.1875
43.5625
43.0
42.5625
42.125
41.6875
41.25
40.8125
40.3125
40.0
39.6875
40.125
45.75
65.5
96.4375
120.8125
133.375
137.5625
132.25
120.0
105.5625
92.0625
80.625
71.1875
63.875
59.0625
56.5625
55.3125
54.75
54.6875
54.5625
54.25
53.8125
53.1875
52.375
51.5
50.5
49.375
48.375
47.5
46.4375
45.5
44.6875
43.875
43.125
42.5
41.8125
41.125
40.6875
40.0625
39.5625
39.125
38.8125
39.375
46.25
68.5625
100.8125
124.75
138.5625
142.9375
137.3125
126.5
112.0625
97.6875
85.5625
75.125
67.0
61.5625
58.4375
56.75
56.0
55.625
55.1875
54.75
54.1875
53.375
52.5
51.6875
50.6875
49.6875
48.625
47.5
46.4375
45.4375
44.5625
43.625
42.8125
42.125
41.4375
40.75
40.125
39.5
38.9375
38.4375
38.125
38.1875
41.5625
56.9375
86.375
112.9375
128.0625
134.8125
131.125
120.1875
106.4375
92.5
80.625
70.8125
63.1875
58.0625
55.25
53.8125
53.1875
52.875
52.625
52.4375
52.125
51.625
50.9375
50.125
49.25
48.3125
47.3125
46.3125
45.375
44.4375
43.5625
42.8125
42.125
41.375
40.6875
40.0
39.4375
38.9375
38.4375
38.125
37.8125
37.75
39.5625
51.0625
78.375
107.8125
125.8125
134.75
134.25
125.625
113.0625
99.4375
87.0625
76.5625
67.9375
61.4375
57.5625
55.5625
54.5
54.0625
53.875
53.75
53.4375
53.0
52.3125
51.5625
50.6875
49.75
48.75
47.875
46.9375
46.1875
45.3125
44.5625
43.75
43.0625
42.3125
41.625
41.0625
40.5
40.0
39.5625
39.125
39.0
41.3125
54.1875
83.0625
113.125
131.4375
140.3125
139.5
130.875
117.4375
102.9375
90.3125
79.3125
70.3125
63.5
59.25
57.0
55.875
55.4375
55.25
54.875
54.5
53.875
53.125
52.25
51.3125
50.3125
49.3125
48.25
47.25
46.25
45.4375
44.5625
43.75
42.9375
42.1875
41.4375
40.6875
40.0
39.4375
38.9375
38.4375
38.25
40.3125
52.4375
80.3125
109.5625
127.25
136.8125
136.625
127.75
114.9375
100.75
88.0
77.0
68.0625
61.6875
57.875
55.875
54.75
54.1875
53.875
53.5
53.0625
52.375
51.75
50.9375
50.0625
49.1875
48.25
47.3125
46.3125
45.4375
44.5625
43.75
43.0
42.1875
41.5
40.875
40.25
39.6875
39.1875
38.8125
38.375
38.0625
39.1875
48.375
73.25
102.75
121.9375
132.375
132.6875
123.1875
110.375
96.75
84.25
73.9375
65.625
59.375
55.75
54.0625
53.3125
53.1875
53.25
53.25
53.0625
52.5625
52.0
51.25
50.4375
49.5625
48.625
47.6875
46.875
46.125
45.375
44.5625
43.875
43.1875
42.5625
42.0
41.4375
40.9375
40.5
40.0625
39.75
39.875
43.875
60.8125
91.1875
118.125
133.6875
140.5625
137.625
127.875
114.3125
100.0625
87.5625
76.8125
68.125
62.0
58.5
56.5
55.625
55.25
55.0
54.8125
54.4375
53.9375
53.1875
52.25
51.3125
50.3125
49.25
48.1875
47.1875
46.25
45.375
44.625
43.875
43.0625
42.3125
41.6875
41.0625
40.5
40.0
39.5625
39.4375
41.1875
52.3125
79.9375
110.75
129.5
139.5
141.125
133.875
121.25
106.25
92.8125
81.3125
71.8125
64.8125
60.4375
57.875
56.5
55.875
55.5
55.125
54.5625
53.875
53.0
52.125
51.1875
50.25
49.125
48.125
47.125
46.125
45.1875
44.25
43.5
42.75
42.0
41.3125
40.6875
40.125
39.6875
39.25
38.75
38.6875
41.75
56.625
86.1875
113.4375
129.0
136.125
132.8125
122.4375
109.0
94.875
82.5625
72.5
64.6875
59.625
56.8125
55.375
54.6875
54.25
53.9375
53.5625
53.125
52.5
51.8125
51.0
50.125
49.125
48.0625
47.0625
46.125
45.25
44.5
43.8125
43.125
42.4375
41.75
41.125
40.5625
40.125
39.75
39.4375
39.1875
40.1875
48.125
71.3125
101.5
122.0
133.25
136.0625
128.75
116.375
102.3125
89.0625
78.0625
69.0625
62.375
58.3125
56.25
55.375
55.0
54.8125
54.5625
54.1875
53.625
52.9375
52.0625
51.1875
50.25
49.3125
48.3125
47.375
46.4375
45.625
44.8125
44.0
43.25
42.5625
41.875
41.1875
40.625
40.125
39.6875
39.3125
40.0
46.8125
69.125
101.6875
125.75
138.75
143.375
138.375
127.375
112.875
98.5625
86.0625
75.4375
67.375
62.125
59.125
57.5
56.875
56.5625
56.125
55.6875
55.0625
54.3125
53.4375
52.5
51.4375
50.375
49.3125
48.3125
47.375
46.375
45.5
44.625
43.875
43.1875
42.4375
41.8125
41.1875
40.6875
40.1875
39.6875
39.5625
42.375
56.5625
85.6875
114.0
130.1875
137.875
135.5
124.6875
110.6875
96.25
83.875
73.625
65.625
60.3125
57.375
55.75
55.0
54.6875
54.375
54.0625
53.5
52.8125
52.125
51.25
50.3125
49.4375
48.5
47.5625
46.625
45.625
44.625
43.8125
43.125
42.375
41.6875
41.0625
40.5
39.9375
39.4375
38.9375
38.5625
39.125
45.5625
66.625
96.5625
118.5625
130.9375
133.8125
126.1875
113.8125
100.125
87.125
76.375
67.5
60.8125
56.875
54.8125
53.8125
53.5
53.3125
53.1875
53.0
52.5625
52.125
51.5
50.8125
50.0625
49.375
48.5
47.6875
46.875
46.0625
45.25
44.4375
43.75
43.125
42.5625
41.9375
41.1875
40.625
40.1875
39.8125
39.9375
44.375
62.0
92.3125
118.125
132.4375
138.4375
133.75
122.3125
108.375
94.4375
82.625
72.75
65.0
59.75
56.9375
55.4375
54.875
54.625
54.5
54.3125
53.9375
53.3125
52.625
51.8125
50.9375
50.0625
48.9375
47.875
46.875
45.9375
45.0625
44.1875
43.4375
42.8125
42.25
41.625
41.0
40.5
39.9375
39.375
39.4375
44.0
62.3125
93.8125
120.375
135.6875
142.1875
138.75
128.0625
113.375
98.875
86.375
75.6875
67.25
61.6875
58.5625
56.875
56.1875
55.875
55.5625
55.125
54.5
53.8125
52.9375
51.9375
50.8125
49.75
48.75
47.6875
46.6875
45.6875
44.8125
43.9375
43.125
42.25
41.5625
41.0
40.5625
40.125
39.625
39.0625
38.8125
40.875
53.4375
81.3125
109.1875
126.1875
135.125
133.5
123.1875
110.0625
96.4375
84.0625
73.75
65.375
59.5
56.3125
54.875
54.1875
54.0625
54.0625
53.9375
53.625
53.1875
52.5625
51.75
50.875
50.0
49.0625
48.25
47.4375
46.6875
45.9375
45.1875
44.5625
43.875
43.3125
42.75
42.1875
41.75
41.375
40.9375
40.8125
43.125
56.125
84.4375
113.375
130.6875
139.1875
137.8125
127.9375
114.5625
100.0625
87.125
76.5625
68.125
62.25
59.0
57.1875
56.375
56.0
55.75
55.5
54.875
54.1875
53.4375
52.5625
51.6875
50.6875
49.625
48.625
47.625
46.625
45.625
44.625
43.875
43.0625
42.375
41.875
41.375
40.875
40.375
39.9375
39.8125
42.625
57.125
87.25
116.625
133.75
142.25
140.6875
130.5625
116.625
102.125
89.0625
77.8125
68.875
62.625
59.0
57.125
56.3125
56.0
55.8125
55.5
55.0625
54.375
53.5625
52.75
51.8125
50.9375
49.9375
48.9375
47.875
46.8125
45.75
44.6875
43.75
43.0
42.3125
41.5625
41.0
40.4375
39.875
39.4375
39.0
39.75
47.4375
71.125
102.625
123.9375
134.5
136.0625
127.75
115.1875
101.4375
88.375
77.5625
68.625
62.0
58.0625
56.0
54.875
54.4375
54.25
53.9375
53.625
53.125
52.5
51.625
50.6875
49.8125
48.6875
47.6875
46.625
45.625
44.75
43.9375
43.125
42.3125
41.625
41.0625
40.5625
40.0625
39.8125
39.625
39.4375
39.25
41.4375
53.4375
80.5
109.6875
128.3125
136.6875
134.5
124.5
111.5
97.6875
85.5625
75.6875
67.8125
61.75
58.3125
56.875
56.25
55.4375
55.875
56.0
55.5
55.0
53.3125
52.5
52.125
50.625
49.375
48.9375
48.1875
46.9375
46.0625
44.875
43.9375
43.375
42.75
42.4375
41.75
41.0
40.5625
40.3125
40.9375
42.125
50.75
75.8125
106.125
126.625
136.625
138.6875
132.3125
120.3125
106.5625
93.1875
81.375
72.1875
65.8125
61.3125
58.75
57.3125
56.375
55.9375
55.3125
54.625
54.125
53.8125
53.0
51.1875
49.25
47.6875
46.6875
45.5
44.0625
43.25
43.0
42.875
42.625
42.125
41.4375
