0
0.0
0.0
0.0
0.0
0.0
0.0
0.0
0.0
0.0
0.0
0.0
0.0
0.0
0.0
0.0
0.0
0.0
0.0
0.0
0.0
0.0
0.0
0.0
0.0
0.0
0.0
0.0
0.0
0.0
0.0
0.0
0.0
0.0
0.0
0.0
0.0
0.0
0.0
0.0
0.0
0.0
0.0
0.0
0.0
0.0
0.0
0.0
0.0
0.0
0.0
0.0
0.0
0.0
0.0
0.0
0.0
0.0
0.0
0.0
0.0
0.0
0.0
0.0
0.0
0.54150390625
0.54150390625
0.537353515625
0.533203125
0.533203125
0.533203125
0.533203125
0.533203125
0.533203125
0.537353515625
0.54150390625
0.54150390625
0.545654296875
0.5498046875
0.5498046875
0.553955078125
0.55810546875
0.55810546875
0.55810546875
0.562255859375
0.566650390625
0.566650390625
0.566650390625
0.566650390625
0.566650390625
0.566650390625
0.566650390625
0.562255859375
0.55810546875
0.55810546875
0.55810546875
0.55810546875
0.553955078125
0.5498046875
0.5498046875
0.5498046875
0.545654296875
0.54150390625
0.54150390625
0.537353515625
0.533203125
0.533203125
0.52490234375
0.52490234375
0.52490234375
0.5166015625
0.5166015625
0.5166015625
0.5166015625
0.5166015625
0.5166015625
0.5166015625
0.5166015625
0.5166015625
0.5166015625
0.52490234375
0.529052734375
0.533203125
0.537353515625
0.54150390625
0.545654296875
0.5498046875
0.5498046875
0.5498046875
0.5498046875
0.5498046875
0.5498046875
0.5498046875
0.5498046875
0.5498046875
0.5498046875
0.5498046875
0.5498046875
0.5498046875
0.545654296875
0.54150390625
0.54150390625
0.54150390625
0.533203125
0.533203125
0.529052734375
0.52490234375
0.52490234375
0.5166015625
0.5166015625
0.512451171875
0.50830078125
0.504150390625
0.5
0.5
0.49560546875
0.491455078125
0.483154296875
0.483154296875
0.474853515625
0.474853515625
0.474853515625
0.466552734375
0.466552734375
0.466552734375
0.466552734375
0.466552734375
0.474853515625
0.474853515625
0.47900390625
0.483154296875
0.4873046875
0.491455078125
0.49560546875
0.5
0.5
0.5
0.5
0.5
0.5
0.5
0.5
0.5
0.5
0.5
0.5
0.5
0.5
0.5
0.5
0.5
0.5
0.5
0.5
0.5
0.504150390625
0.50830078125
0.5166015625
0.520751953125
0.529052734375
0.537353515625
0.54150390625
0.5498046875
0.5498046875
0.5498046875
0.5498046875
0.5498046875
0.545654296875
0.54150390625
0.545654296875
0.5498046875
0.553955078125
0.55810546875
0.566650390625
0.574951171875
0.583251953125
0.583251953125
0.591552734375
0.591552734375
0.591552734375
0.591552734375
0.591552734375
0.591552734375
0.591552734375
0.591552734375
0.591552734375
0.591552734375
0.591552734375
0.591552734375
0.58740234375
0.583251953125
0.5791015625
0.574951171875
0.566650390625
0.562255859375
0.55810546875
0.55810546875
0.5498046875
0.5498046875
0.5498046875
0.5498046875
0.5498046875
0.54150390625
0.54150390625
0.54150390625
0.54150390625
0.533203125
0.533203125
0.52490234375
0.52490234375
0.520751953125
0.5166015625
0.5166015625
0.5166015625
0.5166015625
0.52490234375
0.52490234375
0.533203125
0.537353515625
0.545654296875
0.5498046875
0.55810546875
0.566650390625
0.57080078125
0.574951171875
0.583251953125
0.583251953125
0.583251953125
0.591552734375
0.591552734375
0.591552734375
0.591552734375
0.591552734375
0.591552734375
0.591552734375
0.591552734375
0.591552734375
0.591552734375
0.591552734375
0.58740234375
0.583251953125
0.583251953125
0.583251953125
0.583251953125
0.583251953125
0.583251953125
0.574951171875
0.574951171875
0.574951171875
0.574951171875
0.574951171875
0.574951171875
0.574951171875
0.574951171875
0.574951171875
0.5791015625
0.583251953125
0.583251953125
0.583251953125
0.591552734375
0.591552734375
0.591552734375
0.591552734375
0.591552734375
0.591552734375
0.591552734375
0.591552734375
0.591552734375
0.591552734375
0.583251953125
0.583251953125
0.583251953125
0.5791015625
0.574951171875
0.574951171875
0.57080078125
0.566650390625
0.566650390625
0.562255859375
0.55810546875
0.55810546875
0.5498046875
0.5498046875
0.545654296875
0.54150390625
0.54150390625
0.533203125
0.533203125
0.529052734375
0.52490234375
0.52490234375
0.5166015625
0.5166015625
0.5166015625
0.5166015625
0.5166015625
0.5166015625
0.52490234375
0.52490234375
0.52490234375
0.533203125
0.533203125
0.54150390625
0.545654296875
0.5498046875
0.5498046875
0.553955078125
0.55810546875
0.55810546875
0.55810546875
0.55810546875
0.55810546875
0.55810546875
0.55810546875
0.55810546875
0.55810546875
0.55810546875
0.55810546875
0.55810546875
0.5498046875
0.5498046875
0.5498046875
0.5498046875
0.5498046875
0.54150390625
0.54150390625
0.54150390625
0.54150390625
0.533203125
0.533203125
0.533203125
0.52490234375
0.52490234375
0.52490234375
0.5166015625
0.5166015625
0.5166015625
0.5166015625
0.5166015625
0.52490234375
0.52490234375
0.52490234375
0.533203125
0.533203125
0.54150390625
0.54150390625
0.5498046875
0.5498046875
0.553955078125
0.55810546875
0.55810546875
0.55810546875
0.55810546875
0.55810546875
0.566650390625
0.566650390625
0.566650390625
0.566650390625
0.566650390625
0.55810546875
0.55810546875
0.55810546875
0.55810546875
0.5498046875
0.5498046875
0.5498046875
0.5498046875
0.545654296875
0.54150390625
0.54150390625
0.537353515625
0.533203125
0.529052734375
0.52490234375
0.52490234375
0.520751953125
0.5166015625
0.5166015625
0.5166015625
0.5166015625
0.5166015625
0.5166015625
0.5166015625
0.5166015625
0.5166015625
0.52490234375
0.52490234375
0.533203125
0.537353515625
0.54150390625
0.545654296875
0.5498046875
0.5498046875
0.553955078125
0.55810546875
0.55810546875
0.55810546875
0.55810546875
0.55810546875
0.55810546875
0.55810546875
0.55810546875
0.55810546875
0.55810546875
0.5498046875
0.5498046875
0.5498046875
0.54150390625
0.54150390625
0.54150390625
0.537353515625
0.533203125
0.533203125
0.529052734375
0.52490234375
0.5166015625
0.5166015625
0.50830078125
0.50830078125
0.5
0.5
0.5
0.5
0.49560546875
0.491455078125
0.4873046875
0.483154296875
0.474853515625
0.474853515625
0.466552734375
0.466552734375
0.458251953125
0.458251953125
0.458251953125
0.458251953125
0.458251953125
0.46240234375
0.466552734375
0.470703125
0.474853515625
0.483154296875
0.491455078125
0.49560546875
0.5
0.5
0.50830078125
0.50830078125
0.50830078125
0.50830078125
0.50830078125
0.50830078125
0.50830078125
0.5166015625
0.5166015625
0.520751953125
0.52490234375
0.533203125
0.537353515625
0.54150390625
0.54150390625
0.5498046875
0.5498046875
0.5498046875
0.5498046875
0.5498046875
0.5498046875
0.5498046875
0.5498046875
0.5498046875
0.5498046875
0.553955078125
0.55810546875
0.55810546875
0.562255859375
0.566650390625
0.566650390625
0.57080078125
0.574951171875
0.5791015625
0.583251953125
0.591552734375
0.591552734375
0.599853515625
0.599853515625
0.599853515625
0.608154296875
0.608154296875
0.608154296875
0.608154296875
0.608154296875
0.608154296875
0.608154296875
0.608154296875
0.60400390625
0.599853515625
0.599853515625
0.599853515625
0.591552734375
0.591552734375
0.591552734375
0.58740234375
0.583251953125
0.583251953125
0.574951171875
0.574951171875
0.57080078125
0.566650390625
0.562255859375
0.55810546875
0.55810546875
0.5498046875
0.5498046875
0.5498046875
0.5498046875
0.5498046875
0.5498046875
0.5498046875
0.553955078125
0.55810546875
0.55810546875
0.566650390625
0.566650390625
0.574951171875
0.574951171875
0.5791015625
0.583251953125
0.583251953125
0.583251953125
0.583251953125
0.583251953125
0.591552734375
0.591552734375
0.591552734375
0.58740234375
0.583251953125
0.583251953125
0.583251953125
0.583251953125
0.5791015625
0.574951171875
0.574951171875
0.574951171875
0.57080078125
0.566650390625
0.566650390625
0.562255859375
0.55810546875
0.55810546875
0.5498046875
0.5498046875
0.545654296875
0.54150390625
0.54150390625
0.533203125
0.533203125
0.533203125
0.533203125
0.533203125
0.533203125
0.533203125
0.533203125
0.537353515625
0.54150390625
0.545654296875
0.5498046875
0.55810546875
0.55810546875
0.566650390625
0.566650390625
0.57080078125
0.574951171875
0.574951171875
0.574951171875
0.574951171875
0.574951171875
0.574951171875
0.574951171875
0.574951171875
0.574951171875
0.574951171875
0.57080078125
0.566650390625
0.566650390625
0.566650390625
0.566650390625
0.562255859375
0.55810546875
0.55810546875
0.55810546875
0.5498046875
0.5498046875
0.545654296875
0.54150390625
0.54150390625
0.533203125
0.533203125
0.529052734375
0.52490234375
0.52490234375
0.52490234375
0.52490234375
0.52490234375
0.52490234375
0.52490234375
0.52490234375
0.529052734375
0.533203125
0.537353515625
0.54150390625
0.5498046875
0.5498046875
0.55810546875
0.55810546875
0.562255859375
0.566650390625
0.566650390625
0.566650390625
0.566650390625
0.566650390625
0.566650390625
0.566650390625
0.566650390625
0.566650390625
0.566650390625
0.566650390625
0.566650390625
0.562255859375
0.55810546875
0.55810546875
0.55810546875
0.5498046875
0.5498046875
0.5498046875
0.54150390625
0.54150390625
0.537353515625
0.533203125
0.529052734375
0.52490234375
0.52490234375
0.5166015625
0.5166015625
0.50830078125
0.50830078125
0.5
0.5
0.5
0.5
0.49560546875
0.491455078125
0.491455078125
0.4873046875
0.483154296875
0.483154296875
0.483154296875
0.491455078125
0.491455078125
0.49560546875
0.5
0.5
0.504150390625
0.50830078125
0.5166015625
0.520751953125
0.52490234375
0.529052734375
0.533203125
0.533203125
0.533203125
0.54150390625
0.54150390625
0.54150390625
0.54150390625
0.54150390625
0.54150390625
0.54150390625
0.54150390625
0.54150390625
0.533203125
0.533203125
0.533203125
0.533203125
0.529052734375
0.52490234375
0.52490234375
0.520751953125
0.5166015625
0.512451171875
0.50830078125
0.504150390625
0.5
0.5
0.5
0.5
0.5
0.5
0.5
0.5
0.5
0.5
0.504150390625
0.50830078125
0.5166015625
0.52490234375
0.52490234375
0.533203125
0.533203125
0.533203125
0.533203125
0.533203125
0.533203125
0.533203125
0.533203125
0.533203125
0.537353515625
0.54150390625
0.5498046875
0.5498046875
0.55810546875
0.55810546875
0.55810546875
0.55810546875
0.55810546875
0.5498046875
0.5498046875
0.5498046875
0.5498046875
0.5498046875
0.5498046875
0.5498046875
0.5498046875
0.5498046875
0.5498046875
0.5498046875
0.5498046875
0.5498046875
0.5498046875
0.5498046875
0.553955078125
0.55810546875
0.566650390625
0.57080078125
0.574951171875
0.583251953125
0.58740234375
0.591552734375
0.591552734375
0.599853515625
0.599853515625
0.599853515625
0.599853515625
0.599853515625
0.595703125
0.591552734375
0.591552734375
0.591552734375
0.591552734375
0.58740234375
0.583251953125
0.583251953125
0.583251953125
0.5791015625
0.574951171875
0.574951171875
0.57080078125
0.566650390625
0.566650390625
0.55810546875
0.55810546875
0.5498046875
0.5498046875
0.54150390625
0.54150390625
0.533203125
0.529052734375
0.52490234375
0.520751953125
0.5166015625
0.5166015625
0.5166015625
0.5166015625
0.5166015625
0.5166015625
0.5166015625
0.52490234375
0.52490234375
0.533203125
0.533203125
0.54150390625
0.545654296875
0.5498046875
0.553955078125
0.55810546875
0.55810546875
0.55810546875
0.55810546875
0.55810546875
0.55810546875
0.55810546875
0.55810546875
0.55810546875
0.55810546875
0.55810546875
0.55810546875
0.55810546875
0.5498046875
0.5498046875
0.5498046875
0.545654296875
0.54150390625
0.54150390625
0.54150390625
0.533203125
0.533203125
0.533203125
0.52490234375
0.52490234375
0.5166015625
0.5166015625
0.512451171875
0.50830078125
0.50830078125
0.50830078125
0.50830078125
0.50830078125
0.50830078125
0.50830078125
0.50830078125
0.50830078125
0.5166015625
0.5166015625
0.52490234375
0.529052734375
0.533203125
0.537353515625
0.54150390625
0.54150390625
0.5498046875
0.5498046875
0.5498046875
0.5498046875
0.5498046875
0.5498046875
0.5498046875
0.5498046875
0.5498046875
0.5498046875
0.545654296875
0.54150390625
0.54150390625
0.54150390625
0.54150390625
0.533203125
0.533203125
0.533203125
0.52490234375
0.52490234375
0.520751953125
0.5166015625
0.5166015625
0.50830078125
0.50830078125
0.504150390625
0.5
0.5
0.5
0.5
0.5
0.5
0.5
0.5
0.50830078125
0.50830078125
0.5166015625
0.520751953125
0.52490234375
0.529052734375
0.533203125
0.533203125
0.537353515625
0.54150390625
0.54150390625
0.54150390625
0.54150390625
0.54150390625
0.54150390625
0.54150390625
0.54150390625
0.54150390625
0.54150390625
0.54150390625
0.54150390625
0.54150390625
0.533203125
0.533203125
0.533203125
0.529052734375
0.52490234375
0.52490234375
0.520751953125
0.5166015625
0.5166015625
0.50830078125
0.50830078125
0.50830078125
0.504150390625
0.5
0.5
0.5
0.5
0.5
0.5
0.5
0.5
0.5
0.5
0.50830078125
0.50830078125
0.5166015625
0.520751953125
0.52490234375
0.529052734375
0.533203125
0.533203125
0.533203125
0.54150390625
0.54150390625
0.54150390625
0.54150390625
0.54150390625
0.54150390625
0.533203125
0.533203125
0.533203125
0.533203125
0.52490234375
0.52490234375
0.52490234375
0.52490234375
0.5166015625
0.5166015625
0.512451171875
0.50830078125
0.504150390625
0.5
0.5
0.5
0.491455078125
0.491455078125
0.483154296875
0.483154296875
0.474853515625
0.474853515625
0.474853515625
0.470703125
0.466552734375
0.466552734375
0.466552734375
0.466552734375
0.466552734375
0.470703125
0.474853515625
0.474853515625
0.47900390625
0.483154296875
0.4873046875
0.491455078125
0.491455078125
0.5
0.5
0.5
0.5
0.5
0.5
0.5
0.5
0.5
0.5
0.5
0.5
0.5
0.5
0.5
0.5
0.5
0.5
0.5
0.5
0.5
0.5
0.5
0.5
0.5
0.5
0.5
0.5
0.5
0.5
0.5
0.5
0.491455078125
0.491455078125
0.4873046875
0.483154296875
0.47900390625
0.474853515625
0.470703125
0.466552734375
0.466552734375
0.470703125
0.474853515625
0.474853515625
0.483154296875
0.4873046875
0.491455078125
0.5
0.5
0.504150390625
0.512451171875
0.520751953125
0.52490234375
0.529052734375
0.533203125
0.533203125
0.54150390625
0.54150390625
0.545654296875
0.5498046875
0.5498046875
0.5498046875
0.5498046875
0.5498046875
0.5498046875
0.5498046875
0.5498046875
0.5498046875
0.5498046875
0.5498046875
0.5498046875
0.5498046875
0.545654296875
0.54150390625
0.54150390625
0.54150390625
0.54150390625
0.54150390625
0.537353515625
0.54150390625
0.54150390625
0.54150390625
0.54150390625
0.54150390625
0.5498046875
0.5498046875
0.553955078125
0.55810546875
0.55810546875
0.55810546875
0.55810546875
0.55810546875
0.55810546875
0.55810546875
0.55810546875
0.55810546875
0.55810546875
0.55810546875
0.553955078125
0.5498046875
0.5498046875
0.5498046875
0.54150390625
0.54150390625
0.54150390625
0.537353515625
0.533203125
0.533203125
0.52490234375
0.52490234375
0.5166015625
0.5166015625
0.50830078125
0.50830078125
0.504150390625
0.5
0.5
0.5
0.5
0.49560546875
0.491455078125
0.491455078125
0.491455078125
0.49560546875
0.5
0.5
0.5
0.5
0.50830078125
0.512451171875
0.5166015625
0.520751953125
0.52490234375
0.52490234375
0.52490234375
0.533203125
0.533203125
0.533203125
0.533203125
0.533203125
0.533203125
0.533203125
0.533203125
0.533203125
0.533203125
0.533203125
0.533203125
0.52490234375
0.52490234375
0.52490234375
0.52490234375
0.5166015625
0.5166015625
0.5166015625
0.50830078125
0.50830078125
0.50830078125
0.5
0.5
0.5
0.5
0.5
0.5
0.5
0.491455078125
0.491455078125
0.491455078125
0.5
0.5
0.5
0.5
0.5
0.5
0.50830078125
0.512451171875
0.5166015625
0.520751953125
0.52490234375
0.52490234375
0.533203125
0.533203125
0.533203125
0.533203125
0.533203125
0.533203125
0.533203125
0.533203125
0.533203125
0.533203125
0.533203125
0.533203125
0.533203125
0.52490234375
0.52490234375
0.52490234375
0.520751953125
0.5166015625
0.5166015625
0.512451171875
0.50830078125
0.50830078125
0.504150390625
0.5
0.5
0.5
0.5
0.5
0.5
0.5
0.5
0.5
0.5
0.5
0.5
0.5
0.504150390625
0.50830078125
0.512451171875
0.5166015625
0.520751953125
0.52490234375
0.52490234375
0.529052734375
0.533203125
0.533203125
0.533203125
0.533203125
0.533203125
0.533203125
0.533203125
0.533203125
0.533203125
0.533203125
0.533203125
0.533203125
0.529052734375
0.52490234375
0.52490234375
0.520751953125
0.5166015625
0.512451171875
0.50830078125
0.50830078125
0.5
0.5
0.5
0.5
0.49560546875
0.491455078125
0.4873046875
0.483154296875
0.47900390625
0.474853515625
0.474853515625
0.474853515625
0.474853515625
0.474853515625
0.474853515625
0.474853515625
0.47900390625
0.483154296875
0.483154296875
0.483154296875
0.4873046875
0.491455078125
0.491455078125
0.491455078125
0.491455078125
0.491455078125
0.491455078125
0.491455078125
0.491455078125
0.491455078125
0.491455078125
0.491455078125
0.491455078125
0.491455078125
0.491455078125
0.491455078125
0.491455078125
0.491455078125
0.491455078125
0.491455078125
0.483154296875
0.483154296875
0.474853515625
0.474853515625
0.466552734375
0.466552734375
0.466552734375
0.466552734375
0.470703125
0.474853515625
0.474853515625
0.474853515625
0.474853515625
0.474853515625
0.474853515625
0.474853515625
0.470703125
0.466552734375
0.466552734375
0.466552734375
0.466552734375
0.466552734375
0.466552734375
0.466552734375
0.46240234375
0.458251953125
0.458251953125
0.466552734375
0.466552734375
0.466552734375
0.466552734375
0.474853515625
0.47900390625
0.4873046875
0.49560546875
0.5
0.504150390625
0.512451171875
0.520751953125
0.52490234375
0.533203125
0.533203125
0.537353515625
0.54150390625
0.54150390625
0.54150390625
0.54150390625
0.54150390625
0.545654296875
0.5498046875
0.5498046875
0.5498046875
0.5498046875
0.5498046875
0.5498046875
0.54150390625
0.54150390625
0.54150390625
0.54150390625
0.54150390625
0.533203125
0.533203125
0.533203125
0.533203125
0.533203125
0.533203125
0.533203125
0.533203125
0.533203125
0.54150390625
0.54150390625
0.545654296875
0.5498046875
0.5498046875
0.5498046875
0.55810546875
0.55810546875
0.55810546875
0.55810546875
0.55810546875
0.55810546875
0.55810546875
0.55810546875
0.55810546875
0.5498046875
0.5498046875
0.5498046875
0.5498046875
0.545654296875
0.54150390625
0.54150390625
0.537353515625
0.533203125
0.533203125
0.529052734375
0.52490234375
0.52490234375
0.5166015625
0.5166015625
0.512451171875
0.50830078125
0.50830078125
0.5
0.5
0.5
0.5
0.5
0.5
0.5
0.5
0.5
0.5
0.5
0.5
0.504150390625
0.50830078125
0.5166015625
0.5166015625
0.52490234375
0.52490234375
0.52490234375
0.533203125
0.533203125
0.533203125
0.533203125
0.533203125
0.533203125
0.533203125
0.533203125
0.533203125
0.533203125
0.52490234375
0.52490234375
0.52490234375
0.52490234375
0.520751953125
0.5166015625
0.5166015625
0.5166015625
0.512451171875
0.50830078125
0.50830078125
0.50830078125
0.504150390625
0.5
0.5
0.5
0.5
0.5
0.491455078125
0.491455078125
0.491455078125
0.491455078125
0.491455078125
0.49560546875
0.5
0.5
0.5
0.5
0.50830078125
0.50830078125
0.5166015625
0.5166015625
0.52490234375
0.52490234375
0.52490234375
0.52490234375
0.533203125
0.533203125
0.533203125
0.533203125
0.533203125
0.533203125
0.533203125
0.533203125
0.52490234375
0.52490234375
0.52490234375
0.52490234375
0.520751953125
0.5166015625
0.5166015625
0.5166015625
0.50830078125
0.50830078125
0.504150390625
0.5
0.5
0.5
0.5
0.5
0.49560546875
0.491455078125
0.491455078125
0.483154296875
0.483154296875
0.483154296875
0.483154296875
0.483154296875
0.4892578125
0.493408203125
0.5
0.5
0.5
0.50830078125
0.50830078125
0.50830078125
0.50830078125
0.50830078125
0.50830078125
0.50830078125
0.50830078125
0.50830078125
0.50830078125
0.50830078125
0.50830078125
0.50830078125
0.50830078125
0.5
0.5
0.5
0.5
0.5
0.49560546875
0.491455078125
0.491455078125
0.483154296875
0.483154296875
0.483154296875
0.474853515625
0.474853515625
0.474853515625
0.466552734375
0.466552734375
0.466552734375
0.466552734375
0.466552734375
0.466552734375
0.466552734375
0.466552734375
0.458251953125
0.458251953125
0.46240234375
0.466552734375
0.474853515625
0.483154296875
0.49560546875
0.5
0.50830078125
0.5166015625
0.52490234375
0.533203125
0.537353515625
0.54150390625
0.54150390625
0.5498046875
0.5498046875
0.5498046875
0.553955078125
0.55810546875
0.55810546875
0.55810546875
0.562255859375
0.566650390625
0.55810546875
0.55810546875
0.55810546875
0.55810546875
0.5498046875
0.5498046875
0.5498046875
0.5498046875
0.54150390625
0.54150390625
0.54150390625
0.54150390625
0.537353515625
0.533203125
0.533203125
0.533203125
0.52490234375
0.52490234375
0.52490234375
0.52490234375
0.52490234375
0.52490234375
0.52490234375
0.52490234375
0.533203125
0.533203125
0.54150390625
0.54150390625
0.5498046875
0.553955078125
0.55810546875
0.55810546875
0.562255859375
0.566650390625
0.566650390625
0.566650390625
0.566650390625
0.566650390625
0.566650390625
0.566650390625
0.566650390625
0.566650390625
0.562255859375
0.55810546875
0.55810546875
0.553955078125
0.5498046875
0.5498046875
0.5498046875
0.54150390625
0.54150390625
0.54150390625
0.533203125
0.533203125
0.533203125
0.52490234375
0.52490234375
0.5166015625
0.5166015625
0.50830078125
0.50830078125
0.50830078125
0.5
0.5
0.5
0.5
0.504150390625
0.50830078125
0.50830078125
0.5166015625
0.5166015625
0.52490234375
0.52490234375
0.533203125
0.533203125
0.533203125
0.54150390625
0.545654296875
0.553955078125
0.566650390625
0.5791015625
0.591552734375
0.60400390625
0.62060546875
0.629150390625
0.637451171875
0.6416015625
0.6416015625
0.6416015625
0.637451171875
0.63330078125
0.625
0.62060546875
0.616455078125
0.608154296875
0.60400390625
0.595703125
0.58740234375
0.5791015625
0.57080078125
0.562255859375
0.553955078125
0.5498046875
0.5498046875
0.553955078125
0.57080078125
0.58740234375
0.608154296875
0.629150390625
0.654052734375
0.670654296875
0.6748046875
0.6748046875
0.670654296875
0.654052734375
0.624755859375
0.591552734375
0.55810546875
0.52490234375
0.5
0.47900390625
0.46240234375
0.44580078125
0.433349609375
0.4248046875
0.41650390625
0.408203125
0.404052734375
0.39990234375
0.395751953125
0.3916015625
0.3916015625
0.3916015625
0.387451171875
0.38330078125
0.375
0.3623046875
0.345703125
0.3291015625
0.3125
0.295654296875
0.279052734375
0.270751953125
0.262451171875
0.25830078125
0.25
0.25
0.25
0.262451171875
0.283203125
0.324951171875
0.374755859375
0.445556640625
0.52490234375
0.633056640625
0.749755859375
0.87060546875
0.97900390625
0.999755859375
0.999755859375
0.999755859375
0.999755859375
0.999755859375
0.999755859375
0.999755859375
0.999755859375
0.99560546875
0.928955078125
0.85400390625
0.779052734375
0.71240234375
0.654052734375
0.608154296875
0.56640625
0.533203125
0.50830078125
0.491455078125
0.46240234375
0.4375
0.412353515625
0.39990234375
0.39990234375
0.41650390625
0.46240234375
0.5166015625
0.595703125
0.670654296875
0.72900390625
0.754150390625
0.72900390625
0.64990234375
0.533203125
0.383056640625
0.21240234375
0.0498046875
0.000244140625
0.000244140625
0.000244140625
0.000244140625
0.000244140625
0.000244140625
0.000244140625
0.000244140625
0.000244140625
0.000244140625
0.000244140625
0.091552734375
0.220703125
0.333251953125
0.428955078125
0.508056640625
0.58740234375
0.597412109375
0.639892578125
0.679931640625
0.71240234375
0.73974609375
0.759765625
0.772216796875
0.7822265625
0.784912109375
0.789794921875
0.789794921875
0.789794921875
0.787353515625
0.784912109375
0.77978515625
0.77490234375
0.767333984375
0.76220703125
0.75244140625
0.7373046875
0.7197265625
0.69970703125
0.6796875
0.65234375
0.627197265625
0.59228515625
0.562255859375
0.52734375
0.5048828125
0.48486328125
0.46728515625
0.4599609375
0.454833984375
0.449951171875
0.44482421875
0.43994140625
0.432373046875
0.4248046875
0.419921875
0.414794921875
0.414794921875
0.414794921875
0.409912109375
0.409912109375
0.409912109375
0.4072265625
0.40478515625
0.39990234375
0.3974609375
0.39501953125
0.389892578125
0.385009765625
0.3798828125
0.375
0.367431640625
0.3623046875
0.357421875
0.349853515625
0.34228515625
0.33740234375
0.329833984375
0.327392578125
0.388916015625
0.387451171875
0.38427734375
0.382568359375
0.381103515625
0.381103515625
0.381103515625
0.381103515625
0.381103515625
0.381103515625
0.38427734375
0.38427734375
0.38427734375
0.3857421875
0.387451171875
0.387451171875
0.388916015625
0.39208984375
0.39501953125
0.398193359375
0.4013671875
0.40625
0.41064453125
0.413818359375
0.4169921875
0.420166015625
0.421875
0.4248046875
0.4248046875
0.42626953125
0.427978515625
0.427978515625
0.427978515625
0.427978515625
0.429443359375
0.43115234375
0.427978515625
0.427978515625
0.427978515625
0.427978515625
0.4248046875
0.4248046875
0.4248046875
0.4248046875
0.4248046875
0.4248046875
0.4248046875
0.427978515625
0.427978515625
0.43115234375
0.43115234375
0.4326171875
0.434326171875
0.434326171875
0.4375
0.4375
0.4375
0.4404296875
0.4404296875
0.443603515625
0.443603515625
0.44677734375
0.449951171875
0.449951171875
0.452880859375
0.452880859375
0.454345703125
0.455810546875
0.455810546875
0.458740234375
0.458740234375
0.458740234375
0.458740234375
0.458740234375
0.460205078125
0.461669921875
0.461669921875
0.461669921875
0.461669921875
0.461669921875
0.461669921875
0.461669921875
0.461669921875
0.461669921875
0.458740234375
0.458740234375
0.458740234375
0.458740234375
0.458740234375
0.458740234375
0.458740234375
0.457275390625
0.455810546875
0.455810546875
0.454345703125
0.452880859375
0.451416015625
0.449951171875
0.449951171875
0.449951171875
0.449951171875
0.449951171875
0.449951171875
0.449951171875
0.449951171875
0.449951171875
0.449951171875
0.448486328125
0.447021484375
0.447021484375
0.447021484375
0.447021484375
0.447021484375
0.447021484375
0.447021484375
0.449951171875
0.449951171875
0.451416015625
0.452880859375
0.452880859375
0.454345703125
0.455810546875
0.455810546875
0.455810546875
0.375
0.375
0.375
0.375
0.375
0.375
0.375
0.375
0.375
0.375
0.375
0.375
0.375
0.366455078125
0.366455078125
0.366455078125
0.358154296875
0.358154296875
0.358154296875
0.358154296875
0.366455078125
0.375
0.38330078125
0.395751953125
0.404052734375
0.412353515625
0.41650390625
0.4248046875
0.4248046875
0.428955078125
0.4248046875
0.4248046875
0.4248046875
0.4248046875
0.4248046875
0.41650390625
0.41650390625
0.412353515625
0.408203125
0.39990234375
0.395751953125
0.3916015625
0.38330078125
0.379150390625
0.375
0.366455078125
0.366455078125
0.366455078125
0.358154296875
0.358154296875
0.358154296875
0.358154296875
0.366455078125
0.366455078125
0.366455078125
0.375
0.375
0.38330078125
0.387451171875
0.3916015625
0.39990234375
0.39990234375
0.408203125
0.408203125
0.412353515625
0.41650390625
0.41650390625
0.420654296875
0.4248046875
0.4248046875
0.4248046875
0.4248046875
0.4248046875
0.4248046875
0.4248046875
0.428955078125
0.433349609375
0.433349609375
0.4375
0.441650390625
0.441650390625
0.441650390625
0.441650390625
0.433349609375
0.4248046875
0.420654296875
0.412353515625
0.408203125
0.408203125
0.408203125
0.41650390625
0.420654296875
0.428955078125
0.441650390625
0.449951171875
0.4541015625
0.458251953125
0.458251953125
0.458251953125
0.458251953125
0.458251953125
0.449951171875
0.449951171875
0.44580078125
0.441650390625
0.441650390625
0.441650390625
0.441650390625
0.441650390625
0.449951171875
0.449951171875
0.449951171875
0.449951171875
0.449951171875
0.449951171875
0.449951171875
0.449951171875
0.449951171875
0.449951171875
0.449951171875
0.449951171875
0.449951171875
0.449951171875
0.449951171875
0.449951171875
0.449951171875
0.441650390625
0.441650390625
0.441650390625
0.441650390625
0.441650390625
0.441650390625
0.441650390625
0.441650390625
0.441650390625
0.441650390625
0.441650390625
0.4375
0.433349609375
0.433349609375
0.433349609375
0.433349609375
0.433349609375
0.4375
0.441650390625
0.441650390625
0.441650390625
0.441650390625
0.441650390625
0.441650390625
0.441650390625
0.441650390625
0.441650390625
0.441650390625
0.441650390625
0.4375
0.441650390625
0.433349609375
0.4375
0.441650390625
0.441650390625
0.441650390625
0.441650390625
0.433349609375
0.433349609375
0.433349609375
0.433349609375
0.433349609375
0.433349609375
0.433349609375
0.428955078125
0.4248046875
0.4248046875
0.4248046875
0.4248046875
0.433349609375
0.433349609375
0.433349609375
0.433349609375
0.433349609375
0.433349609375
0.433349609375
0.433349609375
0.433349609375
0.433349609375
0.433349609375
0.4248046875
0.4248046875
0.4248046875
0.4248046875
0.420654296875
0.41650390625
0.41650390625
0.41650390625
0.41650390625
0.41650390625
0.41650390625
0.41650390625
0.420654296875
0.4248046875
0.4248046875
0.4248046875
0.433349609375
0.428955078125
0.4248046875
0.4248046875
0.4248046875
0.41650390625
0.41650390625
0.41650390625
0.41650390625
0.41650390625
0.420654296875
0.4248046875
0.4248046875
0.4248046875
0.4248046875
0.4248046875
0.4248046875
0.4248046875
0.4248046875
0.420654296875
0.41650390625
0.412353515625
0.404052734375
0.395751953125
0.387451171875
0.375
0.366455078125
0.3623046875
0.358154296875
0.358154296875
0.358154296875
0.3623046875
0.366455078125
0.375
0.38330078125
0.3916015625
0.39990234375
0.408203125
0.41650390625
0.4248046875
0.433349609375
0.441650390625
0.449951171875
0.458251953125
0.458251953125
0.46240234375
0.466552734375
0.466552734375
0.458251953125
0.458251953125
0.458251953125
0.458251953125
0.458251953125
0.458251953125
0.458251953125
0.458251953125
0.458251953125
0.458251953125
0.458251953125
0.458251953125
0.458251953125
0.458251953125
0.458251953125
0.458251953125
0.458251953125
0.458251953125
0.458251953125
0.4541015625
0.449951171875
0.449951171875
0.449951171875
0.449951171875
0.44580078125
0.441650390625
0.441650390625
0.441650390625
0.433349609375
0.433349609375
0.433349609375
0.433349609375
0.4248046875
0.4248046875
0.4248046875
0.420654296875
0.41650390625
0.41650390625
0.41650390625
0.41650390625
0.41650390625
0.41650390625
0.41650390625
0.41650390625
0.41650390625
0.41650390625
0.41650390625
0.41650390625
0.41650390625
0.41650390625
0.412353515625
0.408203125
0.408203125
0.408203125
0.408203125
0.408203125
0.408203125
0.408203125
0.408203125
0.408203125
0.408203125
0.404052734375
0.39990234375
0.39990234375
0.39990234375
0.395751953125
0.3916015625
0.3916015625
0.3916015625
0.3916015625
0.3916015625
0.3916015625
0.38330078125
0.38330078125
0.38330078125
0.38330078125
0.38330078125
0.38330078125
0.38330078125
0.3916015625
0.395751953125
0.404052734375
0.412353515625
0.41650390625
0.4248046875
0.4248046875
0.4248046875
0.420654296875
0.41650390625
0.408203125
0.408203125
0.408203125
0.412353515625
0.41650390625
0.428955078125
0.4375
0.449951171875
0.458251953125
0.466552734375
0.474853515625
0.47900390625
0.483154296875
0.474853515625
0.474853515625
0.470703125
0.466552734375
0.458251953125
0.458251953125
0.458251953125
0.458251953125
0.458251953125
0.458251953125
0.466552734375
0.466552734375
0.466552734375
0.466552734375
0.466552734375
0.474853515625
0.474853515625
0.474853515625
0.474853515625
0.474853515625
0.483154296875
0.483154296875
0.483154296875
0.483154296875
0.483154296875
0.483154296875
0.483154296875
0.483154296875
0.483154296875
0.483154296875
0.483154296875
0.483154296875
0.483154296875
0.483154296875
0.483154296875
0.483154296875
0.483154296875
0.4873046875
0.491455078125
0.491455078125
0.491455078125
0.491455078125
0.491455078125
0.491455078125
0.491455078125
0.491455078125
0.4873046875
0.483154296875
0.483154296875
0.483154296875
0.483154296875
0.483154296875
0.483154296875
0.483154296875
0.483154296875
0.483154296875
0.483154296875
0.483154296875
0.483154296875
0.483154296875
0.483154296875
0.483154296875
0.483154296875
0.483154296875
0.483154296875
0.483154296875
0.483154296875
0.483154296875
0.474853515625
0.474853515625
0.474853515625
0.474853515625
0.470703125
0.466552734375
0.466552734375
0.466552734375
0.46240234375
0.458251953125
0.458251953125
0.458251953125
0.458251953125
0.458251953125
0.458251953125
0.458251953125
0.458251953125
0.458251953125
0.458251953125
0.458251953125
0.458251953125
0.458251953125
0.458251953125
0.458251953125
0.4541015625
0.449951171875
0.449951171875
0.449951171875
0.449951171875
0.449951171875
0.449951171875
0.449951171875
0.458251953125
0.458251953125
0.458251953125
0.458251953125
0.458251953125
0.458251953125
0.449951171875
0.449951171875
0.449951171875
0.449951171875
0.449951171875
0.449951171875
0.449951171875
0.449951171875
0.449951171875
0.449951171875
0.449951171875
0.449951171875
0.449951171875
0.449951171875
0.449951171875
0.449951171875
0.449951171875
0.449951171875
0.449951171875
0.441650390625
0.441650390625
0.441650390625
0.441650390625
0.441650390625
0.441650390625
0.441650390625
0.441650390625
0.44580078125
0.449951171875
0.449951171875
0.449951171875
0.449951171875
0.449951171875
0.449951171875
0.449951171875
0.449951171875
0.449951171875
0.449951171875
0.449951171875
0.449951171875
0.449951171875
0.449951171875
0.449951171875
0.449951171875
0.449951171875
0.4541015625
0.458251953125
0.458251953125
0.458251953125
0.458251953125
0.458251953125
0.458251953125
0.449951171875
0.449951171875
0.449951171875
0.449951171875
0.449951171875
0.458251953125
0.458251953125
0.458251953125
0.458251953125
0.458251953125
0.458251953125
0.449951171875
0.449951171875
0.449951171875
0.449951171875
0.449951171875
0.449951171875
0.449951171875
0.449951171875
0.449951171875
0.449951171875
0.449951171875
0.449951171875
0.449951171875
0.449951171875
0.449951171875
0.449951171875
0.449951171875
0.44580078125
0.441650390625
0.441650390625
0.441650390625
0.441650390625
0.441650390625
0.441650390625
0.441650390625
0.44580078125
0.449951171875
0.449951171875
0.449951171875
0.449951171875
0.449951171875
0.449951171875
0.449951171875
0.441650390625
0.441650390625
0.5
0.5
0.5
0.5
0.5
0.5
0.5
0.5
0.5
0.5
0.5
0.5
0.5
0.5
0.5
0.5
0.5
0.5
0.5
0.5
0.5
0.5
0.5
0.5
0.5
0.5
0.5
0.5
0.5
0.5
0.5
0.5
0.5
0.5
0.5
0.5
0.5
0.5
0.5
0.5
0.5
0.5
0.5
0.5
0.5
0.5
0.5
0.5
0.5
0.5
0.5
0.5
0.5
0.5
0.5
0.5
0.5
0.5
0.5
0.5
0.5
0.5
0.5
0.5
0.5
0.5
0.5
0.5
0.5
0.5
0.5
0.5
0.5
0.5
0.5
0.5
0.5
0.5
0.5
0.5
0.5
0.5
0.5
0.5
0.5
0.5
0.5
0.5
0.5
0.5
0.5
0.5
0.5
0.5
0.5
0.5
0.5
0.5
0.5
0.5
0.5
0.5
0.5
0.5
0.5
0.5
0.5
0.5
0.5
0.5
0.5
0.5
0.5
0.5
0.5
0.5
0.5
0.5
0.5
0.5
0.5
0.5
0.5
0.5
0.5
0.5
0.5
0.5
0.5
0.5
0.5
0.491455078125
0.491455078125
0.491455078125
0.491455078125
0.491455078125
0.491455078125
0.491455078125
0.491455078125
0.491455078125
0.491455078125
0.4873046875
0.483154296875
0.483154296875
0.483154296875
0.474853515625
0.474853515625
0.474853515625
0.474853515625
0.474853515625
0.474853515625
0.470703125
0.466552734375
0.466552734375
0.466552734375
0.466552734375
0.466552734375
0.466552734375
0.466552734375
0.466552734375
0.466552734375
0.466552734375
0.466552734375
0.46240234375
0.458251953125
0.458251953125
0.458251953125
0.4541015625
0.449951171875
0.449951171875
0.449951171875
0.449951171875
0.449951171875
0.449951171875
0.449951171875
0.449951171875
0.449951171875
0.44580078125
0.441650390625
0.441650390625
0.441650390625
0.449951171875
0.449951171875
0.449951171875
0.449951171875
0.449951171875
0.449951171875
0.449951171875
0.449951171875
0.449951171875
0.449951171875
0.449951171875
0.449951171875
0.449951171875
0.449951171875
0.449951171875
0.4541015625
0.458251953125
0.458251953125
0.458251953125
0.458251953125
0.458251953125
0.458251953125
0.458251953125
0.449951171875
0.449951171875
0.449951171875
0.449951171875
0.458251953125
0.458251953125
0.458251953125
0.458251953125
0.458251953125
0.458251953125
0.458251953125
0.458251953125
0.458251953125
0.458251953125
0.458251953125
0.458251953125
0.458251953125
0.458251953125
0.458251953125
0.458251953125
0.458251953125
0.458251953125
0.458251953125
0.458251953125
0.458251953125
0.458251953125
0.458251953125
0.458251953125
0.458251953125
0.458251953125
0.458251953125
0.458251953125
0.458251953125
0.458251953125
0.458251953125
0.458251953125
0.458251953125
0.458251953125
0.458251953125
0.458251953125
0.458251953125
0.458251953125
0.458251953125
0.458251953125
0.458251953125
0.458251953125
0.458251953125
0.458251953125
0.458251953125
0.458251953125
0.458251953125
0.458251953125
0.458251953125
0.458251953125
0.458251953125
0.4541015625
0.449951171875
0.449951171875
0.449951171875
0.449951171875
0.44580078125
0.441650390625
0.441650390625
0.441650390625
0.441650390625
0.441650390625
0.441650390625
0.441650390625
0.441650390625
0.441650390625
0.433349609375
0.433349609375
0.433349609375
0.428955078125
0.4248046875
0.4248046875
0.4248046875
0.4248046875
0.4248046875
0.41650390625
0.41650390625
0.41650390625
0.41650390625
0.41650390625
0.408203125
0.408203125
0.408203125
0.408203125
0.408203125
0.408203125
0.408203125
0.408203125
0.408203125
0.41650390625
0.41650390625
0.4248046875
0.428955078125
0.433349609375
0.433349609375
0.4375
0.433349609375
0.428955078125
0.4248046875
0.420654296875
0.41650390625
0.41650390625
0.5
0.5
0.5
0.5
0.5
0.5
0.5
0.5
0.5
0.5
0.5
0.5
0.5
0.5
0.5
0.5
0.5
0.5
0.5
0.5
0.5
0.5
0.5
0.5
0.5
0.5
0.5
0.5
0.5
0.5
0.5
0.5
0.5
0.5
0.5
0.5
0.5
0.5
0.5
0.5
0.5
0.5
0.5
0.5
0.5
0.5
0.5
0.5
0.5
0.5
0.5
0.5
0.5
0.5
0.5
0.5
0.5
0.5
0.5
0.5
0.5
0.5
0.466552734375
0.466552734375
0.466552734375
0.466552734375
0.470703125
0.474853515625
0.474853515625
0.483154296875
0.483154296875
0.4873046875
0.491455078125
0.491455078125
0.5
0.5
0.5
0.5
0.5
0.5
0.5
0.5
0.5
0.5
0.5
0.5
0.5
0.5
0.5
0.5
0.5
0.5
0.5
0.5
0.504150390625
0.50830078125
0.50830078125
0.50830078125
0.50830078125
0.50830078125
0.50830078125
0.50830078125
0.50830078125
0.50830078125
0.50830078125
0.50830078125
0.5166015625
0.5166015625
0.5166015625
0.5166015625
0.52490234375
0.52490234375
0.520751953125
0.5166015625
0.5166015625
0.512451171875
0.50830078125
0.50830078125
0.5
0.5
0.5
0.5
0.5
0.5
0.49560546875
0.491455078125
0.4873046875
0.483154296875
0.483154296875
0.47900390625
0.474853515625
0.474853515625
0.474853515625
0.474853515625
0.474853515625
0.474853515625
0.474853515625
0.474853515625
0.474853515625
0.474853515625
0.474853515625
0.483154296875
0.483154296875
0.483154296875
0.483154296875
0.474853515625
0.474853515625
0.474853515625
0.483154296875
0.483154296875
0.483154296875
0.483154296875
0.483154296875
0.483154296875
0.483154296875
0.483154296875
0.483154296875
0.483154296875
0.47900390625
0.474853515625
0.474853515625
0.474853515625
0.474853515625
0.474853515625
0.470703125
0.466552734375
0.466552734375
0.466552734375
0.466552734375
0.466552734375
0.466552734375
0.466552734375
0.466552734375
0.466552734375
0.466552734375
0.46240234375
0.458251953125
0.458251953125
0.458251953125
0.458251953125
0.458251953125
0.458251953125
0.458251953125
0.458251953125
0.449951171875
0.449951171875
0.449951171875
0.449951171875
0.449951171875
0.441650390625
0.441650390625
0.441650390625
0.433349609375
0.433349609375
0.433349609375
0.433349609375
0.433349609375
0.433349609375
0.433349609375
0.433349609375
0.433349609375
0.4375
0.441650390625
0.441650390625
0.441650390625
0.441650390625
0.449951171875
0.449951171875
0.458251953125
0.46240234375
0.466552734375
0.466552734375
0.474853515625
0.474853515625
0.470703125
0.466552734375
0.466552734375
0.458251953125
0.458251953125
0.458251953125
0.449951171875
0.449951171875
0.449951171875
0.4541015625
0.458251953125
0.4541015625
0.449951171875
0.449951171875
0.449951171875
0.449951171875
0.441650390625
0.441650390625
0.433349609375
0.433349609375
0.4248046875
0.4248046875
0.420654296875
0.41650390625
0.41650390625
0.41650390625
0.408203125
0.408203125
0.408203125
0.408203125
0.39990234375
0.39990234375
0.39990234375
0.39990234375
0.39990234375
0.39990234375
0.3916015625
0.3916015625
0.3916015625
0.39990234375
0.39990234375
0.39990234375
0.408203125
0.412353515625
0.41650390625
0.4248046875
0.4248046875
0.4248046875
0.4248046875
0.41650390625
0.412353515625
0.408203125
0.408203125
0.408203125
0.412353515625
0.420654296875
0.428955078125
0.441650390625
0.4541015625
0.46240234375
0.470703125
0.474853515625
0.474853515625
0.474853515625
0.474853515625
0.474853515625
0.466552734375
0.466552734375
0.466552734375
0.474853515625
0.474853515625
0.47900390625
0.483154296875
0.4873046875
0.491455078125
0.491455078125
0.491455078125
0.491455078125
0.483154296875
0.483154296875
0.483154296875
0.483154296875
0.483154296875
0.483154296875
0.483154296875
0.483154296875
0.483154296875
0.483154296875
0.483154296875
0.483154296875
0.483154296875
0.483154296875
0.483154296875
0.483154296875
0.483154296875
0.483154296875
0.483154296875
0.4873046875
0.491455078125
0.491455078125
0.491455078125
0.491455078125
0.5
0.5
0.5
0.5
0.5
0.5
0.5
0.5
0.5
0.5
0.5
0.5
0.5
0.5
0.5
0.5
0.49560546875
0.491455078125
0.491455078125
0.491455078125
0.491455078125
0.4873046875
0.483154296875
0.483154296875
0.483154296875
0.47900390625
0.474853515625
0.474853515625
0.470703125
0.466552734375
0.466552734375
0.466552734375
0.466552734375
0.466552734375
0.466552734375
0.466552734375
0.466552734375
0.466552734375
0.466552734375
0.466552734375
0.466552734375
0.470703125
0.474853515625
0.474853515625
0.474853515625
0.474853515625
0.474853515625
0.474853515625
0.474853515625
0.474853515625
0.474853515625
0.474853515625
0.474853515625
0.474853515625
0.470703125
0.466552734375
0.466552734375
0.466552734375
0.466552734375
0.474853515625
0.474853515625
0.474853515625
0.474853515625
0.474853515625
0.470703125
0.466552734375
0.466552734375
0.466552734375
0.466552734375
0.46240234375
0.458251953125
0.458251953125
0.458251953125
0.458251953125
0.458251953125
0.458251953125
0.458251953125
0.458251953125
0.458251953125
0.466552734375
0.466552734375
0.466552734375
0.466552734375
0.466552734375
0.466552734375
0.466552734375
0.466552734375
0.466552734375
0.474853515625
0.474853515625
0.474853515625
0.466552734375
0.466552734375
0.466552734375
0.466552734375
0.466552734375
0.466552734375
0.470703125
0.474853515625
0.474853515625
0.474853515625
0.474853515625
0.474853515625
0.474853515625
0.474853515625
0.474853515625
0.474853515625
0.474853515625
0.474853515625
0.474853515625
0.474853515625
0.474853515625
0.474853515625
0.474853515625
0.47900390625
0.483154296875
0.483154296875
0.483154296875
0.483154296875
0.47900390625
0.474853515625
0.474853515625
0.474853515625
0.474853515625
0.474853515625
0.474853515625
0.474853515625
0.474853515625
0.474853515625
0.474853515625
0.474853515625
0.474853515625
0.474853515625
0.47900390625
0.483154296875
0.483154296875
0.483154296875
0.483154296875
0.483154296875
0.483154296875
0.483154296875
0.483154296875
0.483154296875
0.483154296875
0.483154296875
0.483154296875
0.483154296875
0.483154296875
0.483154296875
0.474853515625
0.474853515625
0.474853515625
0.474853515625
0.474853515625
0.474853515625
0.470703125
0.466552734375
0.466552734375
0.466552734375
0.466552734375
0.466552734375
0.466552734375
0.466552734375
0.466552734375
0.466552734375
0.466552734375
0.470703125
0.474853515625
0.474853515625
0.474853515625
0.474853515625
0.474853515625
0.474853515625
0.474853515625
0.474853515625
0.474853515625
0.474853515625
0.474853515625
0.483154296875
0.483154296875
0.5
0.5
0.5
0.5
0.5
0.5
0.5
0.5
0.5
0.5
0.5
0.5
0.5
0.5
0.5
0.5
0.5
0.5
0.5
0.5
0.5
0.5
0.5
0.5
0.5
0.5
0.5
0.5
0.5
0.5
0.5
0.5
0.5
0.5
0.5
0.5
0.5
0.5
0.5
0.5
0.5
0.5
0.5
0.5
0.5
0.5
0.5
0.5
0.5
0.5
0.5
0.5
0.5
0.5
0.5
0.5
0.5
0.5
0.5
0.5
0.5
0.5
0.50830078125
0.504150390625
0.5
0.5
0.491455078125
0.4873046875
0.483154296875
0.483154296875
0.483154296875
0.4873046875
0.491455078125
0.491455078125
0.49560546875
0.5
0.5
0.5
0.5
0.5
0.5
0.5
0.5
0.50830078125
0.50830078125
0.512451171875
0.5166015625
0.5166015625
0.52490234375
0.52490234375
0.52490234375
0.52490234375
0.5166015625
0.5166015625
0.5166015625
0.5166015625
0.5166015625
0.5166015625
0.5166015625
0.5166015625
0.5166015625
0.5166015625
0.5166015625
0.5166015625
0.5166015625
0.50830078125
0.50830078125
0.50830078125
0.5
0.5
0.5
0.5
0.5
0.5
0.5
0.504150390625
0.50830078125
0.50830078125
0.50830078125
0.50830078125
0.5166015625
0.5166015625
0.5166015625
0.52490234375
0.52490234375
0.533203125
0.533203125
0.533203125
0.533203125
0.533203125
0.533203125
0.529052734375
0.52490234375
0.52490234375
0.520751953125
0.5166015625
0.5166015625
0.5166015625
0.5166015625
0.512451171875
0.50830078125
0.50830078125
0.5
0.5
0.5
0.49560546875
0.491455078125
0.4873046875
0.483154296875
0.47900390625
0.474853515625
0.474853515625
0.474853515625
0.474853515625
0.474853515625
0.474853515625
0.474853515625
0.474853515625
0.474853515625
0.474853515625
0.483154296875
0.483154296875
0.483154296875
0.483154296875
0.483154296875
0.483154296875
0.483154296875
0.483154296875
0.483154296875
0.483154296875
0.4873046875
0.491455078125
0.49560546875
0.5
0.5
0.5
0.5
0.5
0.5
0.5
0.5
0.5
0.5
0.5
0.5
0.5
0.5
0.5
0.491455078125
0.491455078125
0.491455078125
0.491455078125
0.483154296875
0.483154296875
0.47900390625
0.474853515625
0.466552734375
0.466552734375
0.466552734375
0.46240234375
0.458251953125
0.46240234375
0.466552734375
0.466552734375
0.466552734375
0.466552734375
0.458251953125
0.458251953125
0.458251953125
0.458251953125
0.458251953125
0.458251953125
0.458251953125
0.458251953125
0.466552734375
0.466552734375
0.466552734375
0.466552734375
0.466552734375
0.466552734375
0.466552734375
0.466552734375
0.466552734375
0.466552734375
0.466552734375
0.466552734375
0.466552734375
0.466552734375
0.466552734375
0.466552734375
0.466552734375
0.466552734375
0.458251953125
0.458251953125
0.4541015625
0.449951171875
0.449951171875
0.441650390625
0.441650390625
0.433349609375
0.433349609375
0.4248046875
0.4248046875
0.41650390625
0.41650390625
0.412353515625
0.408203125
0.408203125
0.408203125
0.404052734375
0.39990234375
0.39990234375
0.39990234375
0.39990234375
0.39990234375
0.39990234375
0.39990234375
0.39990234375
0.39990234375
0.408203125
0.408203125
0.408203125
0.408203125
0.408203125
0.408203125
0.408203125
0.408203125
0.408203125
0.408203125
0.408203125
0.408203125
0.404052734375
0.39990234375
0.39990234375
0.39990234375
0.39990234375
0.39990234375
0.39990234375
0.39990234375
0.39990234375
0.39990234375
0.39990234375
0.404052734375
0.408203125
0.408203125
0.408203125
0.408203125
0.408203125
0.408203125
0.408203125
0.408203125
0.408203125
0.412353515625
0.41650390625
0.41650390625
0.41650390625
0.41650390625
0.41650390625
0.41650390625
0.41650390625
0.420654296875
0.4248046875
0.4248046875
0.4248046875
0.433349609375
0.4375
0.441650390625
0.449951171875
0.4541015625
0.458251953125
0.466552734375
0.466552734375
0.474853515625
0.474853515625
0.474853515625
0.474853515625
0.466552734375
0.466552734375
0.458251953125
0.458251953125
0.458251953125
0.46240234375
0.466552734375
0.47900390625
0.4873046875
0.5
0.5
0.50830078125
0.512451171875
0.5166015625
0.5166015625
0.5166015625
0.50830078125
0.50830078125
0.50830078125
0.50830078125
0.5
0.5
0.5
0.5
0.5
0.5
0.5
0.5
0.5
0.5
0.50830078125
0.50830078125
0.50830078125
0.50830078125
0.5166015625
0.5166015625
0.520751953125
0.52490234375
0.52490234375
0.52490234375
0.52490234375
0.52490234375
0.5166015625
0.5166015625
0.5166015625
0.5166015625
0.5166015625
0.52490234375
0.52490234375
0.52490234375
0.52490234375
0.52490234375
0.52490234375
0.52490234375
0.52490234375
0.529052734375
0.533203125
0.533203125
0.533203125
0.533203125
0.533203125
0.533203125
0.533203125
0.533203125
0.533203125
0.533203125
0.533203125
0.533203125
0.533203125
0.533203125
0.533203125
0.533203125
0.533203125
0.533203125
0.533203125
0.533203125
0.533203125
0.533203125
0.533203125
0.533203125
0.52490234375
0.52490234375
0.52490234375
0.52490234375
0.52490234375
0.5166015625
0.5166015625
0.5166015625
0.5166015625
0.5166015625
0.5166015625
0.5166015625
0.5166015625
0.5166015625
0.5166015625
0.512451171875
0.50830078125
0.50830078125
0.50830078125
0.5
0.5
0.5
0.5
0.5
0.5
0.5
0.5
0.5
0.491455078125
0.491455078125
0.491455078125
0.5
0.5
0.5
0.5
0.5
0.5
0.5
0.5
0.5
0.5
0.5
0.5
0.5
0.5
0.5
0.5
0.5
0.5
0.5
0.5
0.5
0.5
0.5
0.5
0.5
0.5
0.5
0.5
0.5
0.5
0.5
0.49560546875
0.491455078125
0.491455078125
0.491455078125
0.491455078125
0.491455078125
0.491455078125
0.491455078125
0.491455078125
0.5
0.5
0.5
0.5
0.5
0.5
0.5
0.5
0.5
0.5
0.5
0.5
0.5
0.5
0.5
0.5
0.5
0.5
0.5
0.5
0.504150390625
0.50830078125
0.50830078125
0.50830078125
0.50830078125
0.50830078125
0.50830078125
0.50830078125
0.504150390625
0.5
0.5
0.5
0.5
0.5
0.5
0.5
0.5
0.5
0.5
0.5
0.5
0.5
0.5
0.5
0.5
0.5
0.5
0.5
0.5
0.5
0.5
0.5
0.5
0.5
0.5
0.5
0.5
0.5
0.50830078125
0.50830078125
0.50830078125
0.512451171875
0.5166015625
0.5166015625
0.5166015625
0.5166015625
0.5166015625
0.50830078125
0.50830078125
0.504150390625
0.5
0.5
0.5
0.5
0.5
0.5
0.5
0.5
0.5
0.5
0.491455078125
0.491455078125
0.483154296875
0.483154296875
0.483154296875
0.474853515625
0.474853515625
0.474853515625
0.474853515625
0.470703125
0.466552734375
0.5
0.5
0.5
0.5
0.5
0.5
0.5
0.5
0.5
0.5
0.5
0.5
0.5
0.5
0.5
0.5
0.5
0.5
0.5
0.5
0.5
0.5
0.5
0.5
0.5
0.5
0.5
0.5
0.5
0.5
0.5
0.5
0.5
0.5
0.5
0.5
0.5
0.5
0.5
0.5
0.5
0.5
0.5
0.5
0.5
0.5
0.5
0.5
0.5
0.5
0.5
0.5
0.5
0.5
0.5
0.5
0.5
0.5
0.5
0.5
0.5
0.5
0.5166015625
0.5166015625
0.5166015625
0.50830078125
0.50830078125
0.50830078125
0.50830078125
0.50830078125
0.512451171875
0.5166015625
0.5166015625
0.5166015625
0.5166015625
0.5166015625
0.5166015625
0.5166015625
0.5166015625
0.512451171875
0.50830078125
0.50830078125
0.50830078125
0.50830078125
0.50830078125
0.50830078125
0.50830078125
0.50830078125
0.50830078125
0.50830078125
0.50830078125
0.504150390625
0.5
0.5
0.5
0.5
0.504150390625
0.50830078125
0.50830078125
0.50830078125
0.50830078125
0.50830078125
0.50830078125
0.50830078125
0.50830078125
0.50830078125
0.50830078125
0.50830078125
0.50830078125
0.50830078125
0.50830078125
0.50830078125
0.50830078125
0.50830078125
0.50830078125
0.50830078125
0.50830078125
0.50830078125
0.50830078125
0.5
0.5
0.5
0.5
0.5
0.5
0.5
0.5
0.5
0.5
0.5
0.5
0.5
0.5
0.5
0.5
0.5
0.5
0.5
0.5
0.5
0.5
0.5
0.5
0.5
0.5
0.5
0.5
0.5
0.5
0.5
0.5
0.5
0.5
0.5
0.5
0.5
0.5
0.5
0.5
0.5
0.5
0.5
0.5
0.5
0.5
0.5
0.5
0.49560546875
0.491455078125
0.491455078125
0.491455078125
0.491455078125
0.491455078125
0.4873046875
0.491455078125
0.491455078125
0.491455078125
0.491455078125
0.491455078125
0.483154296875
0.483154296875
0.483154296875
0.483154296875
0.483154296875
0.483154296875
0.483154296875
0.4873046875
0.491455078125
0.491455078125
0.491455078125
0.491455078125
0.491455078125
0.491455078125
0.491455078125
0.491455078125
0.491455078125
0.491455078125
0.491455078125
0.491455078125
0.491455078125
0.491455078125
0.491455078125
0.491455078125
0.491455078125
0.4873046875
0.483154296875
0.483154296875
0.483154296875
0.483154296875
0.4873046875
0.491455078125
0.491455078125
0.491455078125
0.5
0.49560546875
0.491455078125
0.491455078125
0.483154296875
0.47900390625
0.474853515625
0.470703125
0.466552734375
0.466552734375
0.458251953125
0.458251953125
0.458251953125
0.458251953125
0.466552734375
0.466552734375
0.474853515625
0.474853515625
0.483154296875
0.483154296875
0.483154296875
0.491455078125
0.491455078125
0.491455078125
0.491455078125
0.491455078125
0.491455078125
0.491455078125
0.491455078125
0.491455078125
0.491455078125
0.483154296875
0.483154296875
0.5
0.5
0.5
0.5
0.5
0.5
0.5
0.5
0.5
0.5
0.5
0.5
0.5
0.5
0.5
0.5
0.5
0.5
0.5
0.5
0.5
0.5
0.5
0.5
0.5
0.5
0.5
0.5
0.5
0.5
0.5
0.5
0.5
0.5
0.5
0.5
0.5
0.5
0.5
0.5
0.5
0.5
0.5
0.5
0.5
0.5
0.5
0.5
0.5
0.5
0.5
0.5
0.5
0.5
0.5
0.5
0.5
0.5
0.5
0.5
0.5
0.5
0.5
0.5
0.5
0.5
0.5
0.5
0.5
0.5
0.5
0.5
0.5
0.5
0.5
0.5
0.5
0.5
0.5
0.5
0.5
0.5
0.5
0.5
0.5
0.5
0.5
0.5
0.5
0.5
0.5
0.5
0.5
0.5
0.5
0.5
0.5
0.5
0.5
0.5
0.5
0.5
0.5
0.5
0.5
0.5
0.5
0.5
0.5
0.5
0.5
0.5
0.5
0.5
0.5
0.5
0.5
0.5
0.5
0.5
0.5
0.5
0.5
0.5
0.5
0.5
0.5
0.5
0.5
0.5
0.5
0.5
0.5
0.5
0.5
0.5
0.5
0.5
0.5
0.5
0.5
0.5
0.5
0.5
0.5
0.5
0.5
0.5
0.5
0.5
0.5
0.5
0.5
0.5
0.5
0.5
0.5
0.5
0.5
0.5
0.5
0.5
0.5
0.5
0.5
0.5
0.5
0.5
0.5
0.5
0.5
0.5
0.5
0.5
0.5
0.5
0.5
0.5
0.5
0.5
0.5
0.5
0.5
0.5
0.5
0.5
0.5
0.5
0.5
0.5
0.5
0.5
0.5
0.5
0.5
0.5
0.5
0.5
0.5
0.5
0.5
0.5
0.5
0.5
0.5
0.5
0.5
0.5
0.5
0.5
0.5
0.5
0.5
0.5
0.5
0.5
0.50830078125
0.50830078125
0.50830078125
0.50830078125
0.50830078125
0.50830078125
0.50830078125
0.50830078125
0.504150390625
0.5
0.5
0.5
0.5
0.5
0.5
0.5
0.5
0.5
0.5
0.5
0.5
0.5
0.5
0.5
0.5
0.5
0.5
0.5
0.5
0.5
0.5
0.5
0.5
0.5
0.5
0.5
0.5
0.5
0.5
0.5
0.5
0.5
0.5
0.5
0.49560546875
0.491455078125
0.491455078125
0.483154296875
0.483154296875
0.483154296875
0.483154296875
0.483154296875
0.47900390625
0.474853515625
0.474853515625
0.474853515625
0.466552734375
0.466552734375
0.466552734375
0.46240234375
0.458251953125
0.458251953125
0.458251953125
0.449951171875
0.449951171875
0.449951171875
0.449951171875
0.449951171875
0.441650390625
0.441650390625
0.441650390625
0.441650390625
0.441650390625
0.441650390625
0.441650390625
0.441650390625
0.44580078125
0.449951171875
0.449951171875
0.449951171875
0.449951171875
0.458251953125
0.458251953125
0.46240234375
0.466552734375
0.470703125
0.474853515625
0.474853515625
0.474853515625
0.474853515625
0.474853515625
0.466552734375
0.466552734375
0.46240234375
0.5
0.5
0.5
0.5
0.5
0.5
0.5
0.5
0.5
0.5
0.5
0.5
0.5
0.5
0.5
0.5
0.5
0.5
0.5
0.5
0.5
0.5
0.5
0.5
0.5
0.5
0.5
0.5
0.5
0.5
0.5
0.5
0.5
0.5
0.5
0.5
0.5
0.5
0.5
0.5
0.5
0.5
0.5
0.5
0.5
0.5
0.5
0.5
0.5
0.5
0.5
0.5
0.5
0.5
0.5
0.5
0.5
0.5
0.5
0.5
0.5
0.5
0.5
0.5
0.5
0.5
0.5
0.5
0.5
0.5
0.5
0.5
0.5
0.504150390625
0.50830078125
0.50830078125
0.50830078125
0.50830078125
0.50830078125
0.50830078125
0.50830078125
0.50830078125
0.50830078125
0.50830078125
0.50830078125
0.50830078125
0.50830078125
0.50830078125
0.50830078125
0.50830078125
0.50830078125
0.50830078125
0.50830078125
0.504150390625
0.5
0.5
0.5
0.5
0.5
0.5
0.5
0.5
0.5
0.5
0.5
0.5
0.5
0.5
0.5
0.5
0.5
0.5
0.504150390625
0.50830078125
0.50830078125
0.50830078125
0.50830078125
0.50830078125
0.50830078125
0.50830078125
0.50830078125
0.50830078125
0.50830078125
0.50830078125
0.50830078125
0.50830078125
0.50830078125
0.50830078125
0.50830078125
0.50830078125
0.50830078125
0.50830078125
0.50830078125
0.50830078125
0.50830078125
0.50830078125
0.50830078125
0.50830078125
0.50830078125
0.50830078125
0.50830078125
0.50830078125
0.5
0.5
0.5
0.5
0.5
0.5
0.5
0.5
0.5
0.5
0.5
0.5
0.5
0.5
0.5
0.50830078125
0.50830078125
0.50830078125
0.50830078125
0.50830078125
0.50830078125
0.50830078125
0.504150390625
0.5
0.5
0.5
0.5
0.5
0.5
0.5
0.5
0.5
0.5
0.5
0.5
0.5
0.5
0.5
0.5
0.5
0.5
0.5
0.5
0.5
0.5
0.5
0.5
0.5
0.5
0.5
0.5
0.5
0.5
0.5
0.5
0.5
0.5
0.5
0.5
0.5
0.5
0.5
0.5
0.5
0.5
0.5
0.5
0.5
0.5
0.5
0.5
0.5
0.5
0.5
0.5
0.5
0.5
0.5
0.5
0.5
0.5
0.5
0.5
0.5
0.5
0.5
0.5
0.5
0.5
0.5
0.5
0.5
0.5
0.5
0.5
0.5
0.5
0.5
0.5
0.5
0.5
0.5
0.5
0.5
0.5
0.5
0.5
0.5
0.5
0.5
0.5
0.5
0.5
0.5
0.5
0.5
0.5
0.5
0.5
0.5
0.5
0.5
0.5
0.5
0.5
0.5
0.5
0.5
0.5
0.5
0.5
0.5
0.5
0.5
0.5
0.5
0.5
0.5
0.5
0.5
0.5
0.5
0.5
0.5
0.5
0.5
0.5
0.5
0.5
0.5
0.5
0.5
0.5
0.5
0.5
0.5
0.5
0.5
0.5
0.5
0.5
0.5
0.5
0.5
0.5
0.5
0.5
0.5
0.512451171875
0.50830078125
0.50830078125
0.50830078125
0.50830078125
0.5
0.5
0.5
0.5
0.5
0.5
0.5
0.5
0.5
0.5
0.5
0.5
0.50830078125
0.50830078125
0.50830078125
0.50830078125
0.50830078125
0.50830078125
0.50830078125
0.50830078125
0.50830078125
0.50830078125
0.50830078125
0.50830078125
0.50830078125
0.50830078125
0.50830078125
0.50830078125
0.5
0.5
0.5
0.5
0.5
0.5
0.5
0.5
0.5
0.5
0.5
0.5
0.5
0.5
0.5
0.5
0.5
0.5
0.5
0.5
0.5
0.5
0.5
0.5
0.5
0.5
0.5
0.5
0.5
0.5
0.5
0.5
0.5
0.50830078125
0.50830078125
0.50830078125
0.50830078125
0.504150390625
0.5
0.5
0.5
0.5
0.50830078125
0.50830078125
0.50830078125
0.50830078125
0.50830078125
0.50830078125
0.50830078125
0.50830078125
0.50830078125
0.50830078125
0.504150390625
0.5
0.5
0.5
0.5
0.5
0.5
0.5
0.5
0.5
0.5
0.5
0.5
0.5
0.5
0.491455078125
0.491455078125
0.491455078125
0.491455078125
0.491455078125
0.491455078125
0.491455078125
0.491455078125
0.491455078125
0.491455078125
0.5
0.5
0.5
0.5
0.5
0.5
0.5
0.5
0.5
0.5
0.5
0.5
0.5
0.5
0.5
0.5
0.5
0.5
0.5
0.5
0.49560546875
0.491455078125
0.491455078125
0.491455078125
0.491455078125
0.5
0.5
0.5
0.491455078125
0.491455078125
0.491455078125
0.491455078125
0.491455078125
0.491455078125
0.491455078125
0.4873046875
0.483154296875
0.483154296875
0.47900390625
0.474853515625
0.474853515625
0.474853515625
0.474853515625
0.474853515625
0.474853515625
0.474853515625
0.474853515625
0.474853515625
0.474853515625
0.474853515625
0.470703125
0.466552734375
0.466552734375
0.466552734375
0.466552734375
0.466552734375
0.466552734375
0.466552734375
0.458251953125
0.458251953125
0.458251953125
0.458251953125
0.449951171875
0.449951171875
0.449951171875
0.449951171875
0.441650390625
0.441650390625
0.441650390625
0.441650390625
0.441650390625
0.441650390625
0.441650390625
0.441650390625
0.449951171875
0.449951171875
0.5
0.5
0.5
0.5
0.5
0.5
0.5
0.5
0.5
0.5
0.5
0.5
0.5
0.5
0.5
0.5
0.5
0.5
0.5
0.5
0.5
0.5
0.5
0.5
0.5
0.5
0.5
0.5
0.5
0.5
0.5
0.5
0.5
0.5
0.5
0.5
0.5
0.5
0.5
0.5
0.5
0.5
0.5
0.5
0.5
0.5
0.5
0.5
0.5
0.5
0.5
0.5
0.5
0.5
0.5
0.5
0.5
0.5
0.5
0.5
0.5
0.5
0.5
0.5
0.5
0.5
0.5
0.5
0.5
0.5
0.5
0.5
0.5
0.5
0.5
0.5
0.5
0.5
0.5
0.5
0.5
0.5
0.5
0.5
0.5
0.5
0.5
0.5
0.5
0.5
0.5
0.5
0.5
0.5
0.5
0.5
0.5
0.5
0.5
0.5
0.5
0.5
0.5
0.5
0.5
0.5
0.5
0.5
0.5
0.5
0.5
0.5
0.5
0.5
0.5
0.5
0.5
0.5
0.5
0.5
0.5
0.5
0.5
0.5
0.5
0.5
0.49560546875
0.491455078125
0.491455078125
0.491455078125
0.491455078125
0.491455078125
0.491455078125
0.491455078125
0.491455078125
0.491455078125
0.491455078125
0.491455078125
0.491455078125
0.49560546875
0.5
0.5
0.5
0.5
0.5
0.5
0.5
0.5
0.5
0.5
0.5
0.5
0.5
0.5
0.5
0.5
0.5
0.5
0.491455078125
0.491455078125
0.491455078125
0.491455078125
0.491455078125
0.491455078125
0.491455078125
0.491455078125
0.491455078125
0.491455078125
0.491455078125
0.491455078125
0.483154296875
0.483154296875
0.483154296875
0.483154296875
0.483154296875
0.483154296875
0.47900390625
0.474853515625
0.474853515625
0.474853515625
0.474853515625
0.474853515625
0.474853515625
0.474853515625
0.474853515625
0.474853515625
0.474853515625
0.474853515625
0.483154296875
0.483154296875
0.483154296875
0.491455078125
0.491455078125
0.491455078125
0.49560546875
0.5
0.5
0.5
0.5
0.5
0.5
0.5
0.5
0.5
0.49560546875
0.491455078125
0.491455078125
0.491455078125
0.491455078125
0.491455078125
0.491455078125
0.4873046875
0.483154296875
0.483154296875
0.483154296875
0.483154296875
0.483154296875
0.483154296875
0.483154296875
0.483154296875
0.483154296875
0.483154296875
0.483154296875
0.483154296875
0.483154296875
0.483154296875
0.483154296875
0.47900390625
0.483154296875
0.483154296875
0.483154296875
0.483154296875
0.483154296875
0.483154296875
0.483154296875
0.47900390625
0.474853515625
0.474853515625
0.474853515625
0.474853515625
0.474853515625
0.474853515625
0.474853515625
0.474853515625
0.474853515625
0.466552734375
0.466552734375
0.466552734375
0.5
0.5
0.5
0.5
0.5
0.5
0.5
0.5
0.5
0.5
0.5
0.5
0.5
0.5
0.5
0.5
0.5
0.5
0.5
0.5
0.5
0.5
0.5
0.5
0.5
0.5
0.5
0.5
0.5
0.5
0.5
0.5
0.5
0.5
0.5
0.5
0.5
0.5
0.5
0.5
0.5
0.5
0.5
0.5
0.5
0.5
0.5
0.5
0.5
0.5
0.5
0.5
0.5
0.5
0.5
0.5
0.5
0.5
0.5
0.5
0.5
0.5
0.5
0.5
0.5
0.5
0.5
0.5
0.5
0.5
0.5
0.5
0.5
0.5
0.5
0.5
0.5
0.5
0.5
0.5
0.5
0.5
0.5
0.5
0.5
0.5
0.5
0.5
0.5
0.5
0.5
0.5
0.5
0.5
0.5
0.5
0.5
0.5
0.5
0.5
0.5
0.5
0.5
0.5
0.5
0.5
0.5
0.5
0.5
0.5
0.5
0.5
0.5
0.5
0.5
0.5
0.5
0.5
0.5
0.5
0.5
0.5
0.5
0.5
0.533203125
0.533203125
0.533203125
0.533203125
0.533203125
0.533203125
0.533203125
0.529052734375
0.52490234375
0.52490234375
0.52490234375
0.52490234375
0.52490234375
0.520751953125
0.5166015625
0.5166015625
0.5166015625
0.5166015625
0.5166015625
0.5166015625
0.5166015625
0.5166015625
0.5166015625
0.5166015625
0.5166015625
0.5166015625
0.5166015625
0.5166015625
0.5166015625
0.5166015625
0.5166015625
0.5166015625
0.5166015625
0.5166015625
0.5166015625
0.5166015625
0.5166015625
0.5166015625
0.5166015625
0.5166015625
0.5166015625
0.50830078125
0.50830078125
0.50830078125
0.50830078125
0.50830078125
0.50830078125
0.50830078125
0.50830078125
0.50830078125
0.50830078125
0.50830078125
0.50830078125
0.50830078125
0.5
0.5
0.5
0.5
0.5
0.5
0.5
0.5
0.5
0.5
0.5
0.5
0.5
0.5
0.5
0.49560546875
0.491455078125
0.491455078125
0.5
0.5
0.5
0.5
0.5
0.5
0.5
0.5
0.5
0.5
0.5
0.5
0.5
0.5
0.5
0.5
0.504150390625
0.50830078125
0.50830078125
0.50830078125
0.504150390625
0.5
0.5
0.5
0.5
0.5
0.5
0.49560546875
0.491455078125
0.491455078125
0.483154296875
0.483154296875
0.483154296875
0.483154296875
0.483154296875
0.491455078125
0.491455078125
0.491455078125
0.491455078125
0.491455078125
0.491455078125
0.491455078125
0.491455078125
0.491455078125
0.49560546875
0.5
0.5
0.5
0.5
0.5
0.5
0.5
0.5
0.5
0.5
0.5
0.5
0.5
0.5
0.5
0.5
0.5
0.5
0.5
0.5
0.5
0.5
0.5
0.5
0.5
0.5
0.5
0.5
0.5
0.5
0.5
0.5
0.5
0.5
0.5
0.5
0.5
0.5
0.5
0.5
0.5
0.5
0.5
0.5
0.5
0.5
0.5
0.5
0.5
0.5
0.5
0.5
0.5
0.5
0.5
0.5
0.5
0.5
0.5
0.5
0.5
0.5
0.5
0.5
0.5
0.5
0.5
0.5
0.5
0.5
0.5
0.5
0.5
0.5
0.5
0.5
0.5
0.5
0.5
0.5
0.5
0.5
0.5
0.5
0.5
0.5
0.5
0.5
0.5
0.5
0.5
0.5
0.5
0.5
0.5
0.5
0.5
0.5
0.5
0.5
0.5
0.5
0.5
0.5
0.5
0.5
0.5
0.5
0.5
0.5
0.5
0.5
0.5
0.5
0.5
0.5
0.5
0.5
0.5
0.5
0.5
0.5
0.5
0.5
0.5
0.5
0.5
0.5
0.5
0.5
0.5
0.5
0.5
0.5
0.5
0.5
0.5
0.5
0.5
0.5
0.5
0.5
0.5
0.5
0.5
0.5
0.5
0.5
0.5
0.5
0.5
0.5
0.5
0.5
0.5
0.5
0.5
0.5
0.5
0.5
0.5
0.5
0.5
0.5
0.5
0.5
0.5
0.5
0.5
0.5
0.5
0.5
0.5
0.5
0.5
0.5
0.5
0.5
0.5
0.5
0.5
0.5
0.5
0.5
0.5
0.5
0.5
0.5
0.5
0.5
0.5
0.5
0.5
0.5
0.5
0.5
0.5
0.5
0.5
0.5
0.5
0.5
0.5
0.5
0.5
0.5
0.5
0.5
0.5
0.5
0.5
0.5
0.49560546875
0.491455078125
0.491455078125
0.491455078125
0.49560546875
0.5
0.5
0.5
0.5
0.5
0.5
0.5
0.5
0.5
0.5
0.5
0.5
0.5
0.5
0.5
0.5
0.5
0.5
0.5
0.5
0.5
0.5
0.49560546875
0.491455078125
0.491455078125
0.491455078125
0.491455078125
0.491455078125
0.491455078125
0.491455078125
0.491455078125
0.491455078125
0.491455078125
0.491455078125
0.491455078125
0.483154296875
0.483154296875
0.483154296875
0.483154296875
0.483154296875
0.483154296875
0.483154296875
0.474853515625
0.474853515625
0.474853515625
0.474853515625
0.474853515625
0.474853515625
0.474853515625
0.474853515625
0.474853515625
0.474853515625
0.474853515625
0.47900390625
0.483154296875
0.483154296875
0.483154296875
0.483154296875
0.4873046875
0.491455078125
0.491455078125
0.491455078125
0.491455078125
0.491455078125
0.491455078125
0.491455078125
0.49560546875
0.491455078125
0.491455078125
0.491455078125
0.491455078125
0.491455078125
0.491455078125
0.491455078125
0.491455078125
0.483154296875
0.483154296875
0.483154296875
0.483154296875
0.483154296875
0.483154296875
0.483154296875
0.483154296875
0.483154296875
0.483154296875
0.483154296875
0.483154296875
0.483154296875
0.483154296875
0.483154296875
0.483154296875
0.4873046875
0.491455078125
0.49560546875
0.5
0.5
0.5
0.5
0.5
0.5
0.5
0.5
0.5
0.5
0.5
0.5
0.5
0.5
0.5
0.5
0.5
0.5
0.5
0.5
0.5
0.5
0.5
0.5
0.5
0.5
0.5
0.5
0.5
0.5
0.5
0.5
0.5
0.5
0.5
0.5
0.5
0.5
0.5
0.5
0.5
0.5
0.5
0.5
0.5
0.5
0.5
0.5
0.5
0.5
0.5
0.5
0.5
0.5
0.5
0.5
0.5
0.5
0.5
0.5
0.5
0.5
0.5
0.5
0.5
0.5
0.5
0.5
0.5
0.5
0.5
0.5
0.5
0.5
0.5
0.5
0.5
0.5
0.5
0.5
0.5
0.5
0.5
0.5
0.5
0.5
0.5
0.5
0.5
0.5
0.5
0.5
0.5
0.5
0.5
0.5
0.5
0.5
0.5
0.5
0.5
0.5
0.5
0.5
0.5
0.5
0.5
0.5
0.5
0.5
0.5
0.5
0.5
0.5
0.5
0.5
0.5
0.5
0.5
0.5
0.5
0.5
0.5
0.5
0.5
0.5
0.5
0.5
0.5
0.5
0.5
0.5
0.5
0.5
0.5
0.5
0.5
0.5
0.5
0.5
0.5
0.5
0.5
0.5
0.5
0.5
0.5
0.5
0.5
0.5
0.5
0.5
0.5
0.5
0.5
0.5
0.5
0.5
0.5
0.5
0.5
0.5
0.5
0.5
0.5
0.5
0.5
0.5
0.5
0.5
0.5
0.5
0.5
0.5
0.5
0.5
0.5
0.5
0.5
0.5
0.5
0.5
0.5
0.5
0.5
0.5
0.5
0.5
0.50830078125
0.50830078125
0.50830078125
0.50830078125
0.50830078125
0.504150390625
0.5
0.5
0.5
0.5
0.5
0.5
0.5
0.5
0.5
0.5
0.5
0.5
0.5
0.5
0.5
0.5
0.5
0.5
0.5
0.5
0.5
0.5
0.5
0.5
0.5
0.5
0.5
0.5
0.5
0.5
0.504150390625
0.50830078125
0.50830078125
0.50830078125
0.50830078125
0.50830078125
0.50830078125
0.50830078125
0.50830078125
0.50830078125
0.504150390625
0.5
0.5
0.5
0.5
0.5
0.5
0.5
0.5
0.5
0.5
0.5
0.5
0.5
0.5
0.5
0.5
0.5
0.5
0.5
0.5
0.5
0.5
0.5
0.5
0.5
0.5
0.5
0.5
0.5
0.5
0.5
0.5
0.5
0.5
0.5
0.5
0.5
0.5
0.5
0.5
0.5
0.5
0.5
0.5
0.5
0.5
0.5
0.5
0.5
0.5
0.5
0.5
0.5
0.5
0.5
0.5
0.5
0.5
0.5
0.49560546875
0.491455078125
0.4873046875
0.483154296875
0.483154296875
0.483154296875
0.483154296875
0.483154296875
0.483154296875
0.483154296875
0.483154296875
0.483154296875
0.483154296875
0.483154296875
0.483154296875
0.483154296875
0.483154296875
0.483154296875
0.5
0.5
0.5
0.5
0.5
0.5
0.5
0.5
0.5
0.5
0.5
0.5
0.5
0.5
0.5
0.5
0.5
0.5
0.5
0.5
0.5
0.5
0.5
0.5
0.5
0.5
0.5
0.5
0.5
0.5
0.5
0.5
0.5
0.5
0.5
0.5
0.5
0.5
0.5
0.5
0.5
0.5
0.5
0.5
0.5
0.5
0.5
0.5
0.5
0.5
0.5
0.5
0.5
0.5
0.5
0.5
0.5
0.5
0.5
0.5
0.5
0.5
0.5
0.5
0.5
0.5
0.5
0.5
0.5
0.5
0.5
0.5
0.5
0.5
0.5
0.5
0.5
0.5
0.5
0.5
0.5
0.5
0.5
0.5
0.5
0.5
0.5
0.5
0.5
0.5
0.5
0.5
0.5
0.5
0.5
0.5
0.5
0.5
0.5
0.5
0.5
0.5
0.5
0.5
0.5
0.5
0.5
0.5
0.5
0.5
0.5
0.5
0.5
0.5
0.5
0.5
0.5
0.5
0.5
0.5
0.5
0.5
0.5
0.5
0.5166015625
0.5166015625
0.5166015625
0.5166015625
0.5166015625
0.5166015625
0.5166015625
0.5166015625
0.5166015625
0.5166015625
0.5166015625
0.5166015625
0.50830078125
0.50830078125
0.504150390625
0.5
0.5
0.5
0.5
0.5
0.5
0.5
0.5
0.5
0.5
0.5
0.5
0.5
0.5
0.5
0.5
0.5
0.5
0.5
0.5
0.5
0.5
0.5
0.5
0.5
0.5
0.5
0.5
0.5
0.5
0.5
0.5
0.5
0.5
0.5
0.5
0.5
0.5
0.5
0.5
0.5
0.5
0.5
0.5
0.5
0.5
0.5
0.5
0.5
0.5
0.5
0.5
0.5
0.5
0.5
0.5
0.5
0.5
0.5
0.5
0.5
0.5
0.5
0.5
0.5
0.5
0.5
0.5
0.5
0.5
0.504150390625
0.50830078125
0.50830078125
0.50830078125
0.50830078125
0.50830078125
0.50830078125
0.50830078125
0.50830078125
0.50830078125
0.50830078125
0.50830078125
0.50830078125
0.50830078125
0.50830078125
0.50830078125
0.50830078125
0.504150390625
0.5
0.5
0.5
0.5
0.5
0.5
0.5
0.5
0.5
0.491455078125
0.491455078125
0.491455078125
0.491455078125
0.491455078125
0.491455078125
0.491455078125
0.491455078125
0.483154296875
0.483154296875
0.483154296875
0.483154296875
0.5
0.5
0.5
0.5
0.5
0.5
0.5
0.5
0.5
0.5
0.5
0.5
0.5
0.5
0.5
0.5
0.5
0.5
0.5
0.5
0.5
0.5
0.5
0.5
0.5
0.5
0.5
0.5
0.5
0.5
0.5
0.5
0.5
0.5
0.5
0.5
0.5
0.5
0.5
0.5
0.5
0.5
0.5
0.5
0.5
0.5
0.5
0.5
0.5
0.5
0.5
0.5
0.5
0.5
0.5
0.5
0.5
0.5
0.5
0.5
0.5
0.5
0.5
0.5
0.5
0.5
0.5
0.5
0.5
0.5
0.5
0.5
0.5
0.5
0.5
0.5
0.5
0.5
0.5
0.5
0.5
0.5
0.5
0.5
0.5
0.5
0.5
0.5
0.5
0.5
0.5
0.5
0.5
0.5
0.5
0.5
0.5
0.5
0.5
0.5
0.5
0.5
0.5
0.5
0.5
0.5
0.5
0.5
0.5
0.5
0.5
0.5
0.5
0.5
0.5
0.5
0.5
0.5
0.5
0.5
0.5
0.5
0.5
0.5
0.5
0.5
0.5
0.5
0.5
0.5
0.5
0.5
0.5
0.5
0.5
0.5
0.5
0.5
0.5
0.5
0.5
0.5
0.5
0.50830078125
0.50830078125
0.50830078125
0.504150390625
0.5
0.5
0.5
0.5
0.5
0.5
0.5
0.5
0.5
0.5
0.5
0.5
0.5
0.5
0.5
0.5
0.5
0.5
0.5
0.5
0.5
0.5
0.5
0.5
0.5
0.5
0.50830078125
0.50830078125
0.50830078125
0.50830078125
0.5
0.5
0.50830078125
0.50830078125
0.50830078125
0.50830078125
0.50830078125
0.50830078125
0.50830078125
0.50830078125
0.50830078125
0.50830078125
0.50830078125
0.50830078125
0.50830078125
0.50830078125
0.5
0.5
0.5
0.5
0.5
0.5
0.5
0.5
0.50830078125
0.50830078125
0.50830078125
0.50830078125
0.50830078125
0.50830078125
0.50830078125
0.50830078125
0.50830078125
0.50830078125
0.50830078125
0.50830078125
0.50830078125
0.50830078125
0.50830078125
0.50830078125
0.50830078125
0.50830078125
0.50830078125
0.5166015625
0.5166015625
0.5166015625
0.5166015625
0.5166015625
0.5166015625
0.5166015625
0.5166015625
0.5166015625
0.5166015625
0.5166015625
0.52490234375
0.52490234375
0.52490234375
0.52490234375
0.520751953125
0.5166015625
0.5166015625
0.50830078125
0.50830078125
0.50830078125
0.504150390625
0.5
0.5
0.5
0.5
0.5
0.49560546875
0.5
0.5
0.5
0.5
0.5
0.5
0.5
0.5
0.5
0.5
0.5
0.5
0.5
0.5
0.5
0.5
0.5
0.5
0.5
0.5
0.5
0.5
0.5
0.5
0.5
0.5
0.5
0.5
0.5
0.5
0.5
0.5
0.5
0.5
0.5
0.5
0.5
0.5
0.5
0.5
0.5
0.5
0.5
0.5
0.5
0.5
0.5
0.5
0.5
0.5
0.5
0.5
0.5
0.5
0.5
0.5
0.5
0.5
0.5
0.5
0.5
0.5
0.5
0.5
0.5
0.5
0.5
0.5
0.5
0.5
0.5
0.5
0.5
0.5
0.5
0.5
0.5
0.5
0.5
0.5
0.5
0.5
0.5
0.5
0.5
0.5
0.5
0.5
0.5
0.5
0.5
0.5
0.5
0.5
0.5
0.5
0.5
0.5
0.5
0.5
0.5
0.5
0.5
0.5
0.5
0.5
0.5
0.5
0.5
0.5
0.5
0.5
0.5
0.5
0.5
0.5
0.5
0.5
0.5
0.5
0.5
0.5
0.5
0.5
0.50830078125
0.50830078125
0.50830078125
0.5
0.5
0.5
0.5
0.504150390625
0.504150390625
0.50830078125
0.504150390625
0.5
0.5
0.5
0.5
0.5
0.5
0.5
0.50830078125
0.50830078125
0.50830078125
0.50830078125
0.50830078125
0.50830078125
0.50830078125
0.50830078125
0.50830078125
0.50830078125
0.50830078125
0.50830078125
0.50830078125
0.50830078125
0.50830078125
0.50830078125
0.50830078125
0.50830078125
0.50830078125
0.50830078125
0.504150390625
0.5
0.5
0.5
0.5
0.5
0.5
0.5
0.5
0.5
0.5
0.5
0.5
0.5
0.5
0.5
0.5
0.5
0.5
0.5
0.5
0.5
0.5
0.5
0.5
0.5
0.5
0.5
0.5
0.5
0.5
0.5
0.5
0.5
0.5
0.5
0.5
0.5
0.5
0.5
0.5
0.5
0.5
0.5
0.5
0.5
0.5
0.5
0.5
0.5
0.5
0.5
0.5
0.5
0.5
0.5
0.5
0.5
0.5
0.5
0.5
0.5
0.5
0.5
0.5
0.5
0.5
0.5
0.49560546875
0.491455078125
0.491455078125
0.491455078125
0.491455078125
0.491455078125
0.491455078125
0.491455078125
0.483154296875
0.483154296875
0.483154296875
0.474853515625
0.474853515625
0.470703125
0.466552734375
0.466552734375
0.466552734375
0.46240234375
0.5
0.5
0.5
0.5
0.5
0.5
0.5
0.5
0.5
0.5
0.5
0.5
0.5
0.5
0.5
0.5
0.5
0.5
0.5
0.5
0.5
0.5
0.5
0.5
0.5
0.5
0.5
0.5
0.5
0.5
0.5
0.5
0.5
0.5
0.5
0.5
0.5
0.5
0.5
0.5
0.5
0.5
0.5
0.5
0.5
0.5
0.5
0.5
0.5
0.5
0.5
0.5
0.5
0.5
0.5
0.5
0.5
0.5
0.5
0.5
0.5
0.5
0.5
0.5
0.5
0.5
0.5
0.5
0.5
0.50830078125
0.50830078125
0.50830078125
0.50830078125
0.512451171875
0.5166015625
0.5166015625
0.5166015625
0.5166015625
0.5166015625
0.5166015625
0.5166015625
0.5166015625
0.50830078125
0.50830078125
0.50830078125
0.50830078125
0.50830078125
0.50830078125
0.50830078125
0.50830078125
0.50830078125
0.50830078125
0.50830078125
0.504150390625
0.5
0.5
0.5
0.5
0.5
0.5
0.5
0.5
0.5
0.5
0.5
0.5
0.5
0.5
0.5
0.5
0.5
0.5
0.5
0.504150390625
0.50830078125
0.50830078125
0.50830078125
0.50830078125
0.50830078125
0.50830078125
0.50830078125
0.50830078125
0.50830078125
0.50830078125
0.50830078125
0.50830078125
0.50830078125
0.50830078125
0.50830078125
0.50830078125
0.504150390625
0.5
0.5
0.5
0.5
0.5
0.5
0.5
0.5
0.5
0.5
0.5
0.5
0.5
0.5
0.5
0.5
0.5
0.5
0.5
0.5
0.5
0.5
0.5
0.5
0.5
0.5
0.5
0.5
0.5
0.5
0.5
0.5
0.5
0.5
0.5
0.5
0.5
0.5
0.5
0.5
0.5
0.5
0.5
0.5
0.5
0.5
0.5
0.5
0.5
0.5
0.5
0.5
0.5
0.5
0.5
0.5
0.5
0.5
0.5
0.5
0.5
0.5
0.5
0.5
0.5
0.5
0.5
0.5
0.5
0.5
0.5
0.5
0.5
0.5
0.5
0.5
0.5
0.5
0.5
0.5
0.5
0.5
0.5
0.5
0.5
0.5
0.5
0.5
0.5
0.5
0.5
0.5
0.5
0.5
0.5
0.5
0.5
0.5
0.5
0.5
0.491455078125
0.491455078125
0.491455078125
0.491455078125
0.491455078125
0.491455078125
0.491455078125
0.5
0.5
0.5
0.5
0.5
0.5
0.5
0.5
0.5
0.5
0.5
0.5
0.5
0.5
0.5
0.5
0.5
0.5
0.5
0.5
0.5
0.5
0.5
0.5
0.5
0.5
0.5
0.5
0.5
0.5
0.5
0.5
0.5
0.5
0.5
0.5
0.5
0.5
0.5
0.5
0.5
0.5
0.5
0.5
0.5
0.5
0.5
0.5
0.5
0.5
0.5
0.5
0.5
0.5
0.5
0.5
0.5
0.5
0.5
0.5
0.5
0.5
0.5
0.5
0.5
0.5
0.5
0.5
0.5
0.5
0.5
0.5
0.4541015625
0.46240234375
0.466552734375
0.474853515625
0.483154296875
0.483154296875
0.483154296875
0.483154296875
0.483154296875
0.483154296875
0.483154296875
0.483154296875
0.483154296875
0.483154296875
0.483154296875
0.4873046875
0.491455078125
0.491455078125
0.49560546875
0.5
0.5
0.5
0.5
0.5
0.5
0.5
0.5
0.5
0.5
0.5
0.5
0.5
0.5
0.5
0.5
0.5
0.491455078125
0.491455078125
0.491455078125
0.483154296875
0.483154296875
0.483154296875
0.483154296875
0.483154296875
0.483154296875
0.491455078125
0.491455078125
0.491455078125
0.491455078125
0.491455078125
0.491455078125
0.491455078125
0.491455078125
0.491455078125
0.491455078125
0.491455078125
0.491455078125
0.491455078125
0.49560546875
0.5
0.5
0.5
0.5
0.5
0.50830078125
0.50830078125
0.50830078125
0.50830078125
0.50830078125
0.5166015625
0.5166015625
0.5166015625
0.5166015625
0.5166015625
0.5166015625
0.5166015625
0.5166015625
0.5166015625
0.512451171875
0.50830078125
0.50830078125
0.50830078125
0.50830078125
0.50830078125
0.50830078125
0.5
0.5
0.5
0.5
0.5
0.50830078125
0.50830078125
0.50830078125
0.50830078125
0.50830078125
0.50830078125
0.50830078125
0.50830078125
0.50830078125
0.50830078125
0.5
0.5
0.504150390625
0.50830078125
0.50830078125
0.50830078125
0.50830078125
0.512451171875
0.5166015625
0.5166015625
0.5166015625
0.5166015625
0.5166015625
0.5166015625
0.5166015625
0.5166015625
0.5166015625
0.5166015625
0.5166015625
0.5166015625
0.5166015625
0.5166015625
0.5166015625
0.50830078125
0.50830078125
0.50830078125
0.50830078125
0.50830078125
0.5
0.5
0.5
0.5
0.5
0.5
0.5
0.5
0.5
0.5
0.5
0.5
0.5
0.5
0.5
0.5
0.5
0.5
0.504150390625
0.50830078125
0.50830078125
0.50830078125
0.50830078125
0.5
0.50830078125
0.50830078125
0.50830078125
0.50830078125
0.50830078125
0.50830078125
0.50830078125
0.50830078125
0.50830078125
0.50830078125
0.5
0.5
0.5
0.5
0.5
0.5
0.5
0.5
0.5
0.5
0.5
0.5
0.5
0.5
0.5
0.5
0.5
0.5
0.49560546875
0.491455078125
0.4873046875
0.483154296875
0.5
0.5
0.5
0.5
0.5
0.5
0.5
0.5
0.5
0.5
0.5
0.5
0.5
0.5
0.5
0.5
0.5
0.5
0.5
0.5
0.5
0.5
0.5
0.5
0.5
0.5
0.5
0.5
0.5
0.5
0.5
0.5
0.5
0.5
0.5
0.5
0.5
0.5
0.5
0.5
0.5
0.5
0.5
0.5
0.5
0.5
0.5
0.5
0.5
0.5
0.5
0.5
0.5
0.5
0.5
0.5
0.5
0.5
0.5
0.5
0.5
0.5
0.5
0.5
0.5
0.5
0.5
0.5
0.5
0.5
0.5
0.5
0.5
0.5
0.5
0.5
0.5
0.5
0.5
0.5
0.5
0.5
0.5
0.5
0.5
0.5
0.5
0.5
0.5
0.5
0.5
0.5
0.5
0.5
0.5
0.5
0.5
0.5
0.5
0.5
0.5
0.5
0.5
0.5
0.5
0.5
0.5
0.5
0.5
0.5
0.5
0.5
0.5
0.5
0.5
0.5
0.5
0.5
0.5
0.5
0.5
0.5
0.5
0.5
0.52490234375
0.52490234375
0.52490234375
0.52490234375
0.520751953125
0.5166015625
0.5166015625
0.5166015625
0.5166015625
0.5166015625
0.52490234375
0.52490234375
0.52490234375
0.52490234375
0.52490234375
0.52490234375
0.52490234375
0.5166015625
0.5166015625
0.5166015625
0.5166015625
0.5166015625
0.5166015625
0.5166015625
0.5166015625
0.5166015625
0.5166015625
0.5166015625
0.5166015625
0.50830078125
0.50830078125
0.50830078125
0.50830078125
0.50830078125
0.50830078125
0.50830078125
0.50830078125
0.50830078125
0.50830078125
0.512451171875
0.5166015625
0.5166015625
0.5166015625
0.5166015625
0.512451171875
0.50830078125
0.50830078125
0.50830078125
0.50830078125
0.50830078125
0.50830078125
0.50830078125
0.50830078125
0.5166015625
0.5166015625
0.5166015625
0.5166015625
0.5166015625
0.5166015625
0.5166015625
0.5166015625
0.5166015625
0.5166015625
0.5166015625
0.5166015625
0.5166015625
0.5166015625
0.5166015625
0.5166015625
0.5166015625
0.5166015625
0.5166015625
0.5166015625
0.5166015625
0.5166015625
0.5166015625
0.5166015625
0.5166015625
0.5166015625
0.5166015625
0.5166015625
0.5166015625
0.5166015625
0.5166015625
0.5166015625
0.5166015625
0.512451171875
0.50830078125
0.50830078125
0.50830078125
0.50830078125
0.50830078125
0.5166015625
0.5166015625
0.520751953125
0.52490234375
0.529052734375
0.533203125
0.533203125
0.533203125
0.533203125
0.533203125
0.533203125
0.533203125
0.529052734375
0.52490234375
0.52490234375
0.520751953125
0.5166015625
0.5166015625
0.512451171875
0.50830078125
0.50830078125
0.50830078125
0.504150390625
0.5
0.5
0.5
0.5
0.5
0.5
0.5
0.5
0.5
0.5
0.5
0.5
0.49560546875
0.491455078125
0.491455078125
0.491455078125
0.491455078125
0.491455078125
0.491455078125
0.491455078125
0.491455078125
0.491455078125
0.491455078125
0.491455078125
0.491455078125
0.491455078125
0.491455078125
0.491455078125
0.4873046875
0.483154296875
0.483154296875
0.483154296875
0.483154296875
0.483154296875
0.483154296875
0.483154296875
0.483154296875
0.483154296875
0.483154296875
0.483154296875
0.483154296875
0.47900390625
0.474853515625
0.474853515625
0.474853515625
0.474853515625
0.474853515625
0.474853515625
0.474853515625
0.470703125
0.466552734375
0.466552734375
0.466552734375
0.458251953125
0.458251953125
0.458251953125
0.449951171875
0.449951171875
0.449951171875
0.449951171875
0.449951171875
0.449951171875
0.449951171875
0.449951171875
0.449951171875
0.449951171875
0.449951171875
0.449951171875
0.449951171875
0.449951171875
0.449951171875
0.5
0.5
0.5
0.5
0.5
0.5
0.5
0.5
0.5
0.5
0.5
0.5
0.5
0.5
0.5
0.5
0.5
0.5
0.5
0.5
0.5
0.5
0.5
0.5
0.5
0.5
0.5
0.5
0.5
0.5
0.5
0.5
0.5
0.5
0.5
0.5
0.5
0.5
0.5
0.5
0.5
0.5
0.5
0.5
0.5
0.5
0.5
0.5
0.5
0.5
0.5
0.5
0.5
0.5
0.5
0.5
0.5
0.5
0.5
0.5
0.5
0.5
0.5
0.5
0.5
0.5
0.5
0.5
0.5
0.5
0.5
0.5
0.5
0.5
0.5
0.5
0.5
0.5
0.5
0.5
0.5
0.5
0.5
0.5
0.5
0.5
0.5
0.5
0.5
0.5
0.5
0.5
0.5
0.5
0.5
0.5
0.5
0.5
0.5
0.5
0.5
0.5
0.5
0.5
0.5
0.5
0.5
0.5
0.5
0.5
0.5
0.5
0.5
0.5
0.5
0.5
0.5
0.5
0.5
0.5
0.5
0.5
0.5
0.5
0.50830078125
0.50830078125
0.50830078125
0.50830078125
0.50830078125
0.50830078125
0.50830078125
0.50830078125
0.50830078125
0.50830078125
0.50830078125
0.50830078125
0.50830078125
0.50830078125
0.50830078125
0.50830078125
0.50830078125
0.504150390625
0.5
0.5
0.5
0.5
0.5
0.5
0.5
0.5
0.5
0.5
0.5
0.5
0.5
0.5
0.5
0.5
0.5
0.5
0.5
0.5
0.5
0.5
0.5
0.5
0.5
0.5
0.5
0.50830078125
0.50830078125
0.50830078125
0.50830078125
0.50830078125
0.50830078125
0.50830078125
0.5166015625
0.5166015625
0.5166015625
0.5166015625
0.5166015625
0.5166015625
0.5166015625
0.5166015625
0.512451171875
0.50830078125
0.50830078125
0.504150390625
0.5
0.5
0.5
0.5
0.5
0.5
0.5
0.5
0.5
0.5
0.5
0.5
0.5
0.5
0.5
0.5
0.5
0.49560546875
0.5
0.5
0.5
0.5
0.5
0.5
0.5
0.5
0.5
0.5
0.5
0.49560546875
0.491455078125
0.491455078125
0.483154296875
0.483154296875
0.483154296875
0.474853515625
0.474853515625
0.474853515625
0.474853515625
0.466552734375
0.466552734375
0.466552734375
0.458251953125
0.458251953125
0.458251953125
0.449951171875
0.449951171875
0.449951171875
0.449951171875
0.449951171875
0.449951171875
0.449951171875
0.449951171875
0.449951171875
0.441650390625
0.441650390625
0.441650390625
0.441650390625
0.441650390625
0.441650390625
0.5
0.5
0.5
0.5
0.5
0.5
0.5
0.5
0.5
0.5
0.5
0.5
0.5
0.5
0.5
0.5
0.5
0.5
0.5
0.5
0.5
0.5
0.5
0.5
0.5
0.5
0.5
0.5
0.5
0.5
0.5
0.5
0.5
0.5
0.5
0.5
0.5
0.5
0.5
0.5
0.5
0.5
0.5
0.5
0.5
0.5
0.5
0.5
0.5
0.5
0.5
0.5
0.5
0.5
0.5
0.5
0.5
0.5
0.5
0.5
0.5
0.5
0.533203125
0.533203125
0.533203125
0.533203125
0.533203125
0.529052734375
0.52490234375
0.52490234375
0.52490234375
0.5166015625
0.5166015625
0.5166015625
0.5166015625
0.50830078125
0.50830078125
0.5166015625
0.5166015625
0.5166015625
0.5166015625
0.5166015625
0.5166015625
0.5166015625
0.5166015625
0.5166015625
0.5166015625
0.512451171875
0.50830078125
0.50830078125
0.50830078125
0.50830078125
0.512451171875
0.5166015625
0.5166015625
0.5166015625
0.520751953125
0.52490234375
0.52490234375
0.52490234375
0.52490234375
0.52490234375
0.52490234375
0.52490234375
0.520751953125
0.5166015625
0.5166015625
0.5166015625
0.5166015625
0.5166015625
0.5166015625
0.5166015625
0.5166015625
0.5166015625
0.5166015625
0.5166015625
0.5166015625
0.5166015625
0.512451171875
0.50830078125
0.50830078125
0.50830078125
0.50830078125
0.50830078125
0.50830078125
0.50830078125
0.504150390625
0.5
0.5
0.5
0.5
0.5
0.5
0.50830078125
0.50830078125
0.50830078125
0.50830078125
0.50830078125
0.50830078125
0.50830078125
0.50830078125
0.5166015625
0.5166015625
0.5166015625
0.5166015625
0.5166015625
0.50830078125
0.50830078125
0.50830078125
0.50830078125
0.50830078125
0.512451171875
0.512451171875
0.50830078125
0.50830078125
0.50830078125
0.50830078125
0.5
0.5
0.5
0.5
0.5
0.5
0.5
0.5
0.5
0.5
0.5
0.5
0.5
0.5
0.5
0.5
0.5
0.5
0.5
0.5
0.5
0.5
0.5
0.5
0.5
0.5
0.50830078125
0.50830078125
0.50830078125
0.504150390625
0.5
0.5
0.5
0.5
0.5
0.504150390625
0.50830078125
0.50830078125
0.50830078125
0.50830078125
0.50830078125
0.50830078125
0.50830078125
0.50830078125
0.5
0.5
0.5
0.50830078125
0.50830078125
0.50830078125
0.50830078125
0.50830078125
0.50830078125
0.50830078125
0.50830078125
0.504150390625
0.5
0.5
0.5
0.5
0.5
0.5
0.5
0.5
0.5
0.5
0.5
0.5
0.5
0.5
0.5
0.5
0.5
0.5
0.5
0.5
0.5
0.5
0.5
0.5
0.5
0.5
0.5
0.5
0.49560546875
0.491455078125
0.491455078125
0.491455078125
0.483154296875
0.483154296875
0.483154296875
0.5
0.5
0.5
0.5
0.5
0.5
0.5
0.5
0.5
0.5
0.5
0.5
0.5
0.5
0.5
0.5
0.5
0.5
0.5
0.5
0.5
0.5
0.5
0.5
0.5
0.5
0.5
0.5
0.5
0.5
0.5
0.5
0.5
0.5
0.5
0.5
0.5
0.5
0.5
0.5
0.5
0.5
0.5
0.5
0.5
0.5
0.5
0.5
0.5
0.5
0.5
0.5
0.5
0.5
0.5
0.5
0.5
0.5
0.5
0.5
0.5
0.5
0.5
0.5
0.5
0.5
0.5
0.5
0.5
0.5
0.5
0.5
0.5
0.5
0.5
0.5
0.5
0.5
0.5
0.5
0.5
0.5
0.5
0.5
0.5
0.5
0.5
0.5
0.5
0.5
0.5
0.5
0.5
0.5
0.5
0.5
0.5
0.5
0.5
0.5
0.5
0.5
0.5
0.5
0.5
0.5
0.5
0.5
0.5
0.5
0.5
0.5
0.5
0.5
0.5
0.5
0.5
0.5
0.5
0.5
0.5
0.5
0.5
0.5
0.5166015625
0.5166015625
0.5166015625
0.512451171875
0.50830078125
0.50830078125
0.50830078125
0.50830078125
0.512451171875
0.5166015625
0.5166015625
0.5166015625
0.5166015625
0.5166015625
0.512451171875
0.50830078125
0.50830078125
0.50830078125
0.50830078125
0.50830078125
0.50830078125
0.50830078125
0.50830078125
0.50830078125
0.50830078125
0.50830078125
0.50830078125
0.50830078125
0.5166015625
0.5166015625
0.5166015625
0.5166015625
0.5166015625
0.5166015625
0.5166015625
0.5166015625
0.512451171875
0.50830078125
0.50830078125
0.50830078125
0.50830078125
0.50830078125
0.50830078125
0.50830078125
0.50830078125
0.50830078125
0.50830078125
0.50830078125
0.50830078125
0.5
0.5
0.5
0.5
0.5
0.5
0.5
0.5
0.5
0.5
0.5
0.5
0.5
0.5
0.5
0.5
0.5
0.50830078125
0.50830078125
0.50830078125
0.50830078125
0.50830078125
0.50830078125
0.50830078125
0.50830078125
0.50830078125
0.50830078125
0.50830078125
0.50830078125
0.50830078125
0.50830078125
0.50830078125
0.50830078125
0.50830078125
0.50830078125
0.50830078125
0.504150390625
0.5
0.5
0.5
0.5
0.5
0.5
0.5
0.5
0.5
0.5
0.5
0.5
0.5
0.5
0.5
0.5
0.5
0.491455078125
0.491455078125
0.491455078125
0.491455078125
0.491455078125
0.5
0.5
0.5
0.5
0.5
0.5
0.5
0.5
0.5
0.5
0.5
0.5
0.5
0.5
0.5
0.49560546875
0.5
0.5
0.5
0.5
0.5
0.5
0.5
0.5
0.5
0.5
0.5
0.5
0.5
0.5
0.5
0.5
0.5
0.5
0.5
0.5
0.5
0.5
0.5
0.5
0.5
0.5
0.5
0.5
0.5
0.5
0.5
0.5
0.5
0.5
0.5
0.5
0.5
0.5
0.5
0.5
0.5
0.5
0.5
0.5
0.5
0.5
0.5
0.5
0.5
0.5
0.5
0.5
0.5
0.5
0.5
0.5
0.5
0.5
0.5
0.5
0.5
0.5
0.5
0.5
0.5
0.5
0.5
0.5
0.5
0.5
0.5
0.5
0.5
0.5
0.5
0.5
0.5
0.5
0.5
0.5
0.5
0.5
0.5
0.5
0.5
0.5
0.5
0.5
0.5
0.5
0.5
0.5
0.5
0.5
0.5
0.5
0.5
0.5
0.5
0.5
0.5
0.5
0.5
0.5
0.5
0.5
0.5
0.5
0.5
0.5
0.5
0.5
0.5
0.5
0.5
0.5
0.5
0.5
0.5
0.5
0.5
0.5
0.5
0.5
0.5166015625
0.5166015625
0.5166015625
0.5166015625
0.5166015625
0.5166015625
0.5166015625
0.5166015625
0.5166015625
0.5166015625
0.5166015625
0.5166015625
0.5166015625
0.50830078125
0.50830078125
0.50830078125
0.50830078125
0.50830078125
0.50830078125
0.50830078125
0.50830078125
0.50830078125
0.50830078125
0.50830078125
0.50830078125
0.50830078125
0.504150390625
0.5
0.5
0.5
0.5
0.5
0.5
0.5
0.50830078125
0.50830078125
0.50830078125
0.50830078125
0.50830078125
0.50830078125
0.50830078125
0.50830078125
0.50830078125
0.50830078125
0.512451171875
0.5166015625
0.5166015625
0.5166015625
0.5166015625
0.5166015625
0.5166015625
0.512451171875
0.50830078125
0.50830078125
0.50830078125
0.50830078125
0.50830078125
0.5
0.5
0.5
0.5
0.5
0.5
0.5
0.5
0.5
0.5
0.5
0.5
0.5
0.5
0.5
0.5
0.5
0.504150390625
0.50830078125
0.50830078125
0.50830078125
0.50830078125
0.50830078125
0.50830078125
0.50830078125
0.50830078125
0.50830078125
0.5166015625
0.5166015625
0.5166015625
0.5166015625
0.50830078125
0.50830078125
0.50830078125
0.50830078125
0.50830078125
0.50830078125
0.50830078125
0.50830078125
0.50830078125
0.50830078125
0.50830078125
0.50830078125
0.50830078125
0.504150390625
0.5
0.5
0.5
0.5
0.5
0.5
0.5
0.5
0.5
0.5
0.5
0.5
0.5
0.504150390625
0.50830078125
0.50830078125
0.50830078125
0.50830078125
0.50830078125
0.50830078125
0.50830078125
0.50830078125
0.5
0.5
0.5
0.5
0.5
0.5
0.5
0.5
0.5
0.5
0.5
0.5
0.5
0.5
0.5
0.5
0.5
0.5
0.5
0.5
0.5
0.5
0.5
0.5
0.5
0.5
0.5
0.5
0.5
0.5
0.5
0.5
0.5
0.5
0.5
0.5
0.5
0.5
0.5
0.5
0.5
0.5
0.5
0.5
0.5
0.5
0.5
0.5
0.5
0.5
0.5
0.5
0.5
0.5
0.5
0.5
0.5
0.5
0.5
0.5
0.5
0.5
0.5
0.5
0.5
0.5
0.5
0.5
0.5
0.5
0.5
0.5
0.5
0.5
0.5
0.5
0.5
0.5
0.5
0.5
0.5
0.5
0.5
0.5
0.5
0.5
0.5
0.5
0.5
0.5
0.5
0.5
0.5
0.5
0.5
0.5
0.5
0.5
0.5
0.5
0.5
0.5
0.5
0.5
0.5
0.5
0.5
0.5
0.5
0.5
0.5
0.5
0.5
0.5
0.5
0.5
0.5
0.5
0.5
0.5
0.5
0.5
0.50830078125
0.50830078125
0.5166015625
0.5166015625
0.5166015625
0.5166015625
0.5166015625
0.5166015625
0.5166015625
0.5166015625
0.5166015625
0.5166015625
0.5166015625
0.5166015625
0.5166015625
0.5166015625
0.5166015625
0.5166015625
0.5166015625
0.5166015625
0.5166015625
0.5166015625
0.5166015625
0.5166015625
0.5166015625
0.5166015625
0.5166015625
0.5166015625
0.50830078125
0.50830078125
0.50830078125
0.50830078125
0.50830078125
0.50830078125
0.5166015625
0.5166015625
0.5166015625
0.5166015625
0.5166015625
0.5166015625
0.512451171875
0.50830078125
0.50830078125
0.50830078125
0.50830078125
0.50830078125
0.50830078125
0.50830078125
0.50830078125
0.50830078125
0.5166015625
0.5166015625
0.5166015625
0.5166015625
0.5166015625
0.5166015625
0.5166015625
0.5166015625
0.5166015625
0.5166015625
0.512451171875
0.50830078125
0.50830078125
0.50830078125
0.50830078125
0.50830078125
0.50830078125
0.50830078125
0.5
0.5
0.5
0.5
0.5
0.5
0.5
0.5
0.5
0.5
0.5
0.5
0.5
0.5
0.5
0.5
0.5
0.5
0.5
0.5
0.5
0.5
0.504150390625
0.50830078125
0.50830078125
0.50830078125
0.50830078125
0.5
0.504150390625
0.50830078125
0.50830078125
0.50830078125
0.50830078125
0.50830078125
0.50830078125
0.50830078125
0.50830078125
0.504150390625
0.5
0.5
0.5
0.5
0.5
0.5
0.5
0.5
0.5
0.5
0.5
0.5
0.5
0.5
0.5
0.5
0.5
0.5
0.5
0.5
0.5
0.5
0.5
0.5
0.5
0.5
0.5
0.5
0.5
0.5
0.5
0.5
0.5
0.5
0.5
0.5
0.5
0.5
0.5
0.5
0.5
0.5
0.5
0.5
0.5
0.5
0.5
0.5
0.5
0.5
0.5
0.5
0.5
0.5
0.5
0.5
0.5
0.5
0.5
0.5
0.5
0.5
0.5
0.5
0.5
0.5
0.5
0.5
0.5
0.5
0.5
0.5
0.5
0.5
0.5
0.5
0.5
0.5
0.5
0.5
0.5
0.5
0.5
0.5
0.5
0.5
0.5
0.5
0.5
0.5
0.5
0.5
0.5
0.5
0.5
0.5
0.5
0.5
0.5
0.5
0.5
0.5
0.5
0.5
0.5
0.5
0.5
0.5
0.5
0.5
0.5
0.5
0.5
0.5
0.5
0.5
0.5
0.5
0.5
0.5
0.5
0.5
0.5
0.5
0.5
0.5
0.5
0.5
0.5
0.5
0.5
0.5
0.5
0.5
0.5
0.5
0.5
0.5
0.5
0.5
0.5
0.5
0.5166015625
0.5166015625
0.5166015625
0.5166015625
0.5166015625
0.5166015625
0.5166015625
0.5166015625
0.5166015625
0.5166015625
0.5166015625
0.5166015625
0.5166015625
0.5166015625
0.5166015625
0.5166015625
0.5166015625
0.5166015625
0.5166015625
0.5166015625
0.5166015625
0.5166015625
0.5166015625
0.5166015625
0.5166015625
0.5166015625
0.5166015625
0.5166015625
0.5166015625
0.5166015625
0.5166015625
0.5166015625
0.5166015625
0.5166015625
0.5166015625
0.5166015625
0.50830078125
0.50830078125
0.50830078125
0.50830078125
0.50830078125
0.50830078125
0.50830078125
0.50830078125
0.50830078125
0.50830078125
0.50830078125
0.50830078125
0.50830078125
0.50830078125
0.50830078125
0.50830078125
0.50830078125
0.50830078125
0.50830078125
0.50830078125
0.50830078125
0.50830078125
0.50830078125
0.50830078125
0.50830078125
0.50830078125
0.512451171875
0.50830078125
0.50830078125
0.50830078125
0.50830078125
0.50830078125
0.50830078125
0.50830078125
0.50830078125
0.50830078125
0.50830078125
0.50830078125
0.50830078125
0.50830078125
0.50830078125
0.50830078125
0.504150390625
0.5
0.5
0.5
0.5
0.5
0.5
0.5
0.5
0.5
0.5
0.5
0.5
0.5
0.5
0.5
0.5
0.5
0.5
0.5
0.5
0.5
0.5
0.504150390625
0.50830078125
0.50830078125
0.50830078125
0.504150390625
0.5
0.5
0.5
0.5
0.5
0.5
0.5
0.5
0.5
0.5
0.5
0.5
0.5
0.5
0.5
0.5
0.5
0.5
0.5
0.5
0.5
0.5
0.5
0.5
0.5
0.5
0.5
0.5
0.5
0.5
0.5
0.5
0.5
0.5
0.5
0.5
0.5
0.5
0.5
0.5
0.5
0.5
0.5
0.5
0.5
0.5
0.5
0.5
0.5
0.5
0.5
0.5
0.5
0.5
0.5
0.5
0.5
0.5
0.5
0.5
0.5
0.5
0.5
0.5
0.5
0.5
0.5
0.5
0.5
0.5
0.5
0.5
0.5
0.5
0.5
0.5
0.5
0.5
0.5
0.5
0.5
0.5
0.5
0.5
0.5
0.5
0.5
0.5
0.5
0.5
0.5
0.5
0.5
0.5
0.5
0.5
0.5
0.5
0.5
0.5
0.5
0.5
0.5
0.5
0.5
0.5
0.5
0.5
0.5
0.5
0.5
0.5
0.5
0.5
0.5
0.5
0.5
0.5
0.5
0.5
0.5
0.5
0.5
0.5
0.5
0.5
0.5
0.5
0.5
0.5
0.5
0.5
0.5
0.5
0.5
0.5
0.5
0.5
0.5
0.5
0.5
0.5
0.5
0.5
0.5
0.5
0.5
0.5
0.5
0.5
0.5
0.5
0.5
0.5
0.5
0.5
0.5
0.5
0.5
0.5
0.5
0.5
0.5
0.5
0.5
0.5
0.5
0.5
0.5
0.5
0.5
0.5
0.5
0.5
0.5
0.5
0.5
0.5
0.5
0.5
0.5
0.5
0.5
0.5
0.5
0.5
0.5
0.5
0.5
0.5
0.5
0.5
0.5
0.5
0.5
0.5
0.5
0.5
0.5
0.5
0.5
0.5
0.5
0.5
0.5166015625
0.50830078125
0.50830078125
0.50830078125
0.50830078125
0.50830078125
0.50830078125
0.5166015625
0.5166015625
0.5166015625
0.5166015625
0.5166015625
0.5166015625
0.5166015625
0.5166015625
0.5166015625
0.5166015625
0.512451171875
0.50830078125
0.50830078125
0.50830078125
0.50830078125
0.50830078125
0.50830078125
0.50830078125
0.50830078125
0.50830078125
0.50830078125
0.504150390625
0.5
0.5
0.5
0.5
0.5
0.5
0.5
0.5
0.5
0.5
0.5
0.5
0.50830078125
0.50830078125
0.50830078125
0.50830078125
0.50830078125
0.50830078125
0.50830078125
0.50830078125
0.50830078125
0.50830078125
0.50830078125
0.50830078125
0.50830078125
0.50830078125
0.50830078125
0.50830078125
0.50830078125
0.50830078125
0.50830078125
0.50830078125
0.50830078125
0.50830078125
0.50830078125
0.50830078125
0.50830078125
0.50830078125
0.50830078125
0.50830078125
0.50830078125
0.50830078125
0.50830078125
0.50830078125
0.50830078125
0.50830078125
0.50830078125
0.50830078125
0.50830078125
0.512451171875
0.5166015625
0.5166015625
0.520751953125
0.52490234375
0.52490234375
0.52490234375
0.52490234375
0.52490234375
0.520751953125
0.5166015625
0.5166015625
0.5166015625
0.5166015625
0.5166015625
0.52490234375
0.52490234375
0.52490234375
0.52490234375
0.5166015625
0.5166015625
0.5166015625
0.5166015625
0.50830078125
0.50830078125
0.50830078125
0.50830078125
0.50830078125
0.50830078125
0.5
0.5
0.5
0.5
0.5
0.5
0.5
0.5
0.5
0.5
0.5
0.5
0.5
0.5
0.5
0.5
0.49560546875
0.5
0.5
0.5
0.5
0.5
0.5
0.5
0.5
0.5
0.5
0.5
0.5
0.5
0.5
0.5
0.5
0.5
0.5
0.5
0.5
0.5
0.5
0.5
0.5
0.5
0.5
0.5
0.5
0.5
0.5
0.5
0.5
0.5
0.5
0.5
0.5
0.5
0.5
0.5
0.5
0.5
0.5
0.5
0.5
0.5
0.5
0.5
0.5
0.5
0.5
0.5
0.5
0.5
0.5
0.5
0.5
0.5
0.5
0.5
0.5
0.5
0.5
0.5
0.5
0.5
0.5
0.5
0.5
0.5
0.5
0.5
0.5
0.5
0.5
0.5
0.5
0.5
0.5
0.5
0.5
0.5
0.5
0.5
0.5
0.5
0.5
0.5
0.5
0.5
0.5
0.5
0.5
0.5
0.5
0.5
0.5
0.5
0.5
0.5
0.5
0.5
0.5
0.5
0.5
0.5
0.5
0.5
0.5
0.5
0.5
0.5
0.5
0.5
0.5
0.5
0.5
0.5
0.5
0.5
0.5
0.5
0.5
0.5
0.5
0.5
0.5
0.5
0.5
0.5
0.5
0.5
0.5
0.5
0.5
0.5
0.5
0.5
0.5
0.5
0.5
0.5
0.5
0.5
0.5
0.5
0.5
0.5
0.5
0.5
0.5
0.5
0.5
0.5
0.5
0.5
0.5
0.5
0.5
0.5
0.5
0.5
0.5
0.5
0.5
0.5
0.5
0.5
0.5
0.5
0.5
0.5
0.5
0.5
0.5
0.5
0.5
0.5
0.5
0.5
0.5
0.5
0.5
0.5
0.5
0.5
0.5
0.50830078125
0.5166015625
0.5166015625
0.5166015625
0.52490234375
0.52490234375
0.52490234375
0.52490234375
0.533203125
0.533203125
0.533203125
0.533203125
0.529052734375
0.52490234375
0.52490234375
0.52490234375
0.52490234375
0.533203125
0.533203125
0.533203125
0.533203125
0.533203125
0.537353515625
0.54150390625
0.54150390625
0.54150390625
0.54150390625
0.54150390625
0.54150390625
0.54150390625
0.54150390625
0.54150390625
0.54150390625
0.537353515625
0.533203125
0.533203125
0.533203125
0.52490234375
0.52490234375
0.52490234375
0.5166015625
0.5166015625
0.5166015625
0.5166015625
0.5166015625
0.5166015625
0.5166015625
0.5166015625
0.5166015625
0.5166015625
0.5166015625
0.5166015625
0.5166015625
0.5166015625
0.5166015625
0.5166015625
0.5166015625
0.50830078125
0.50830078125
0.50830078125
0.50830078125
0.504150390625
0.5
0.5
0.5
0.5
0.5
0.5
0.5
0.5
0.5
0.5
0.5
0.5
0.5
0.5
0.5
0.5
0.5
0.5
0.5
0.5
0.5
0.5
0.5
0.5
0.5
0.5
0.5
0.5
0.5
0.5
0.5
0.5
0.5
0.5
0.5
0.5
0.5
0.5
0.5
0.5
0.5
0.5
0.5
0.5
0.5
0.5
0.5
0.5
0.5
0.5
0.5
0.5
0.5
0.5
0.5
0.5
0.5
0.5
0.5
0.5
0.5
0.5
0.5
0.5
0.5
0.5
0.5
0.5
0.5
0.5
0.5
0.5
0.5
0.5
0.5
0.5
0.5
0.5
0.5
0.5
0.5
0.5
0.5
0.5
0.5
0.5
0.5
0.5
0.5
0.5
0.5
0.5
0.5
0.5
0.5
0.5
0.5
0.5
0.5
0.5
0.5
0.5
0.5
0.5
0.5
0.5
0.5
0.5
0.5
0.5
0.5
0.5
0.5
0.5
0.5
0.5
0.5
0.5
0.5
0.5
0.5
0.5
0.5
0.5
0.5
0.5
0.5
0.5
0.5
0.5
0.5
0.5
0.5
0.5
0.5
0.5
0.5
0.5
0.5
0.5
0.5
0.5
0.5
0.5
0.5
0.5
0.5
0.5
0.5
0.5
0.5
0.5
0.5
0.5
0.5
0.5
0.5
0.5
0.5
0.5
0.5
0.5
0.5
0.5
0.5
0.5
0.5
0.5
0.5
0.5
0.5
0.5
0.5
0.5
0.5
0.5
0.5
0.5
0.5
0.5
0.5
0.5
0.5
0.5
0.5
0.5
0.50830078125
0.50830078125
0.50830078125
0.50830078125
0.50830078125
0.50830078125
0.50830078125
0.50830078125
0.50830078125
0.50830078125
0.50830078125
0.50830078125
0.50830078125
0.50830078125
0.50830078125
0.50830078125
0.5
0.5
0.5
0.5
0.5
0.5
0.50830078125
0.50830078125
0.50830078125
0.50830078125
0.50830078125
0.50830078125
0.50830078125
0.50830078125
0.50830078125
0.50830078125
0.50830078125
0.504150390625
0.5
0.5
0.5
0.5
0.5
0.5
0.5
0.5
0.5
0.5
0.5
0.5
0.5
0.49560546875
0.491455078125
0.491455078125
0.491455078125
0.491455078125
0.491455078125
0.491455078125
0.5
0.5
0.5
0.5
0.5
0.5
0.5
0.5
0.5
0.5
0.5
0.5
0.5
0.504150390625
0.50830078125
0.50830078125
0.50830078125
0.50830078125
0.50830078125
0.50830078125
0.50830078125
0.50830078125
0.50830078125
0.5
0.5
0.5
0.5
0.5
0.5
0.5
0.5
0.5
0.5
0.5
0.5
0.5
0.5
0.5
0.49560546875
0.491455078125
0.491455078125
0.491455078125
0.491455078125
0.49560546875
0.5
0.5
0.5
0.5
0.5
0.5
0.5
0.5
0.5
0.5
0.5
0.5
0.5
0.5
0.5
0.5
0.5
0.5
0.5
0.5
0.5
0.5
0.5
0.5
0.5
0.5
0.5
0.5
0.5
0.5
0.5
0.5
0.5
0.5
0.5
0.5
0.5
0.5
0.5
0.5
0.5
0.5
0.5
0.5
0.5
0.5
0.5
0.5
0.5
0.5
0.5
0.5
0.5
0.5
0.5
0.5
0.5
0.5
0.5
0.5
0.5
0.5
0.5
0.5
0.5
0.5
0.5
0.5
0.5
0.5
0.5
0.5
0.5
0.5
0.5
0.5
0.5
0.5
0.5
0.5
0.5
0.5
0.5
0.5
0.5
0.5
0.5
0.5
0.5
0.5
0.5
0.5
0.5
0.5
0.5
0.5
0.5
0.5
0.5
0.5
0.5
0.5
0.5
0.5
0.5
0.5
0.5
0.5
0.5
0.5
0.5
0.5
0.5
0.5
0.5
0.5
0.5
0.5
0.5
0.5
0.5
0.5
0.5
0.5
0.5
0.5
0.5
0.5
0.5
0.5
0.5
0.5
0.5
0.5
0.5
0.5
0.5
0.5
0.5
0.5
0.5
0.5
0.5
0.5
0.5
0.5
0.5
0.5
0.5
0.5
0.5
0.5
0.5
0.5
0.5
0.5
0.5
0.5
0.5
0.5
0.5
0.5
0.5
0.5
0.5
0.5
0.5
0.5
0.5
0.5
0.5
0.5
0.5
0.5
0.5
0.5
0.5
0.5
0.5
0.5
0.5
0.5
0.5
0.5
0.5
0.5
0.5
0.5
0.5
0.5
0.5
0.5
0.5
0.5
0.5
0.5
0.5
0.5
0.5
0.5
0.5
0.5
0.5
0.5
0.5
0.5
0.5
0.5
0.5
0.5
0.5
0.5
0.50830078125
0.50830078125
0.50830078125
0.50830078125
0.50830078125
0.5166015625
0.5166015625
0.5166015625
0.5166015625
0.520751953125
0.52490234375
0.52490234375
0.5166015625
0.5166015625
0.5166015625
0.5166015625
0.5166015625
0.5166015625
0.5166015625
0.5166015625
0.5166015625
0.5166015625
0.5166015625
0.5166015625
0.5166015625
0.5166015625
0.512451171875
0.50830078125
0.50830078125
0.50830078125
0.50830078125
0.50830078125
0.50830078125
0.50830078125
0.50830078125
0.50830078125
0.50830078125
0.50830078125
0.50830078125
0.50830078125
0.50830078125
0.50830078125
0.50830078125
0.504150390625
0.5
0.5
0.5
0.504150390625
0.50830078125
0.50830078125
0.50830078125
0.50830078125
0.50830078125
0.50830078125
0.50830078125
0.50830078125
0.50830078125
0.50830078125
0.50830078125
0.50830078125
0.50830078125
0.50830078125
0.50830078125
0.50830078125
0.50830078125
0.50830078125
0.50830078125
0.504150390625
0.5
0.5
0.5
0.5
0.5
0.5
0.491455078125
0.491455078125
0.491455078125
0.491455078125
0.483154296875
0.483154296875
0.483154296875
0.474853515625
0.474853515625
0.470703125
0.466552734375
0.466552734375
0.46240234375
0.458251953125
0.458251953125
0.458251953125
0.458251953125
0.458251953125
0.458251953125
0.449951171875
0.449951171875
0.449951171875
0.449951171875
0.449951171875
0.449951171875
0.449951171875
0.4541015625
0.458251953125
0.458251953125
0.458251953125
0.46240234375
0.466552734375
0.470703125
0.474853515625
0.474853515625
0.47900390625
0.474853515625
0.474853515625
0.474853515625
0.466552734375
0.466552734375
0.458251953125
0.458251953125
0.458251953125
0.466552734375
0.474853515625
0.47900390625
0.4873046875
0.49560546875
0.5
0.5
0.5
0.5
0.5
0.5
0.5
0.5
0.5
0.5
0.5
0.5
0.5
0.5
0.5
0.5
0.5
0.5
0.5
0.5
0.5
0.5
0.5
0.5
0.5
0.5
0.5
0.5
0.5
0.5
0.5
0.5
0.5
0.5
0.5
0.5
0.5
0.5
0.5
0.5
0.5
0.5
0.5
0.5
0.5
0.5
0.5
0.5
0.5
0.5
0.5
0.5
0.5
0.5
0.5
0.5
0.5
0.5
0.5
0.5166015625
0.520751953125
0.52490234375
0.52490234375
0.52490234375
0.52490234375
0.52490234375
0.52490234375
0.52490234375
0.52490234375
0.52490234375
0.5166015625
0.5166015625
0.5166015625
0.5166015625
0.5166015625
0.5166015625
0.5166015625
0.5166015625
0.5166015625
0.5166015625
0.5166015625
0.5166015625
0.5166015625
0.5166015625
0.5166015625
0.5166015625
0.5166015625
0.50830078125
0.50830078125
0.50830078125
0.50830078125
0.50830078125
0.50830078125
0.50830078125
0.50830078125
0.50830078125
0.50830078125
0.50830078125
0.50830078125
0.50830078125
0.50830078125
0.50830078125
0.50830078125
0.50830078125
0.50830078125
0.50830078125
0.50830078125
0.512451171875
0.5166015625
0.5166015625
0.5166015625
0.5166015625
0.5166015625
0.50830078125
0.50830078125
0.50830078125
0.50830078125
0.50830078125
0.50830078125
0.50830078125
0.50830078125
0.50830078125
0.50830078125
0.50830078125
0.50830078125
0.504150390625
0.5
0.5
0.5
0.5
0.5
0.5
0.5
0.5
0.50830078125
0.50830078125
0.50830078125
0.50830078125
0.50830078125
0.50830078125
0.50830078125
0.50830078125
0.50830078125
0.504150390625
0.5
0.5
0.50830078125
0.50830078125
0.50830078125
0.50830078125
0.50830078125
0.5166015625
0.5166015625
0.5166015625
0.5166015625
0.5166015625
0.5166015625
0.5166015625
0.5166015625
0.520751953125
0.52490234375
0.52490234375
0.52490234375
0.52490234375
0.5166015625
0.5166015625
0.5166015625
0.5166015625
0.512451171875
0.50830078125
0.50830078125
0.50830078125
0.50830078125
0.512451171875
0.5166015625
0.5166015625
0.5166015625
0.5166015625
0.5166015625
0.5166015625
0.50830078125
0.50830078125
0.50830078125
0.50830078125
0.50830078125
0.5
0.5
0.5
0.5
0.5
0.5
0.5
0.5
0.5
0.5
0.5
0.5
0.5
0.5
0.5
0.5
0.5
0.5
0.5
0.5
0.5
0.5
0.5
0.5
0.5
0.5
0.5
0.5
0.5
0.5
0.5
0.5
0.5
0.5
0.5
0.5
0.5
0.5
0.5
0.5
0.5
0.5
0.5
0.5
0.5
0.5
0.5
0.5
0.5
0.5
0.5
0.5
0.5
0.5
0.5
0.5
0.5
0.5
0.5
0.5
0.5
0.5
0.5
0.5
0.5
0.5
0.5
0.5
0.5
0.5
0.5
0.5
0.5
0.5
0.5
0.5
0.5
0.5
0.5
0.5
0.5
0.5
0.5
0.5
0.5
0.5
0.5
0.5
0.5
0.5
0.5
0.5
0.5
0.5
0.5
0.5
0.5
0.5
0.5
0.5
0.5
0.5
0.5
0.5
0.5
0.5
0.5
0.5
0.5
0.5
0.5
0.5
0.5
0.5
0.5
0.5
0.5
0.5
0.5
0.5
0.5
0.5
0.50830078125
0.50830078125
0.50830078125
0.512451171875
0.5166015625
0.5166015625
0.5166015625
0.5166015625
0.5166015625
0.5166015625
0.5166015625
0.5166015625
0.5166015625
0.5166015625
0.5166015625
0.5166015625
0.5166015625
0.5166015625
0.5166015625
0.5166015625
0.520751953125
0.52490234375
0.52490234375
0.52490234375
0.52490234375
0.52490234375
0.52490234375
0.52490234375
0.52490234375
0.52490234375
0.52490234375
0.52490234375
0.52490234375
0.5166015625
0.5166015625
0.5166015625
0.50830078125
0.50830078125
0.50830078125
0.50830078125
0.50830078125
0.50830078125
0.50830078125
0.50830078125
0.5166015625
0.5166015625
0.5166015625
0.5166015625
0.5166015625
0.5166015625
0.5166015625
0.5166015625
0.5166015625
0.5166015625
0.5166015625
0.5166015625
0.5166015625
0.5166015625
0.52490234375
0.52490234375
0.52490234375
0.52490234375
0.52490234375
0.52490234375
0.52490234375
0.52490234375
0.52490234375
0.5166015625
0.5166015625
0.5166015625
0.5166015625
0.5166015625
0.5166015625
0.5166015625
0.5166015625
0.5166015625
0.5166015625
0.5166015625
0.50830078125
0.50830078125
0.50830078125
0.50830078125
0.50830078125
0.50830078125
0.50830078125
0.50830078125
0.50830078125
0.50830078125
0.50830078125
0.50830078125
0.50830078125
0.50830078125
0.50830078125
0.50830078125
0.504150390625
0.5
0.50830078125
0.50830078125
0.50830078125
0.50830078125
0.50830078125
0.50830078125
0.50830078125
0.50830078125
0.512451171875
0.5166015625
0.5166015625
0.5166015625
0.5166015625
0.5166015625
0.512451171875
0.50830078125
0.50830078125
0.50830078125
0.50830078125
0.50830078125
0.50830078125
0.50830078125
0.50830078125
0.504150390625
0.5
0.5
0.5
0.5
0.5
0.5
0.5
0.5
0.5
0.5
0.5
0.5
0.5
0.5
0.5
0.5
0.5
0.5
0.5
0.5
0.491455078125
0.491455078125
0.491455078125
0.49560546875
0.5
0.5
0.5
0.5
0.5
0.5
0.5
0.5
0.5
0.5
0.5
0.5
0.491455078125
0.491455078125
0.491455078125
0.4873046875
0.483154296875
0.483154296875
0.483154296875
0.47900390625
0.474853515625
0.474853515625
0.474853515625
0.466552734375
0.466552734375
0.458251953125
0.458251953125
0.4541015625
0.449951171875
0.449951171875
0.449951171875
0.44580078125
0.441650390625
0.441650390625
0.441650390625
0.441650390625
0.441650390625
0.4375
0.433349609375
0.433349609375
0.433349609375
0.433349609375
0.5
0.5
0.5
0.5
0.5
0.5
0.5
0.5
0.5
0.5
0.5
0.5
0.5
0.5
0.5
0.5
0.5
0.5
0.5
0.5
0.5
0.5
0.5
0.5
0.5
0.5
0.5
0.5
0.5
0.5
0.5
0.5
0.5
0.5
0.5
0.5
0.5
0.5
0.5
0.5
0.5
0.5
0.5
0.5
0.5
0.5
0.5
0.5
0.5
0.5
0.5
0.5
0.5
0.5
0.5
0.5
0.5
0.5
0.5
0.5
0.5
0.5
0.5
0.5
0.5
0.5
0.5
0.5
0.5
0.5
0.5
0.5
0.5
0.5
0.5
0.5
0.5
0.5
0.5
0.5
0.5
0.5
0.5
0.5
0.5
0.5
0.5
0.5
0.5
0.5
0.5
0.5
0.5
0.5
0.5
0.5
0.5
0.5
0.5
0.5
0.5
0.5
0.5
0.5
0.5
0.5
0.5
0.5
0.5
0.5
0.5
0.5
0.5
0.5
0.5
0.5
0.5
0.5
0.5
0.5
0.5
0.5
0.5
0.5
0.5166015625
0.5166015625
0.5166015625
0.5166015625
0.5166015625
0.5166015625
0.5166015625
0.5166015625
0.5166015625
0.5166015625
0.5166015625
0.5166015625
0.5166015625
0.5166015625
0.5166015625
0.5166015625
0.5166015625
0.5166015625
0.5166015625
0.5166015625
0.5166015625
0.5166015625
0.5166015625
0.5166015625
0.5166015625
0.5166015625
0.5166015625
0.5166015625
0.5166015625
0.5166015625
0.5166015625
0.512451171875
0.50830078125
0.50830078125
0.50830078125
0.50830078125
0.50830078125
0.50830078125
0.50830078125
0.50830078125
0.50830078125
0.50830078125
0.50830078125
0.50830078125
0.50830078125
0.50830078125
0.504150390625
0.5
0.5
0.5
0.5
0.5
0.504150390625
0.50830078125
0.50830078125
0.50830078125
0.50830078125
0.50830078125
0.50830078125
0.50830078125
0.50830078125
0.50830078125
0.50830078125
0.504150390625
0.5
0.5
0.5
0.504150390625
0.50830078125
0.50830078125
0.50830078125
0.50830078125
0.50830078125
0.504150390625
0.5
0.5
0.5
0.5
0.5
0.5
0.5
0.5
0.5
0.5
0.5
0.5
0.5
0.5
0.5
0.5
0.5
0.5
0.5
0.5
0.5
0.5
0.504150390625
0.50830078125
0.50830078125
0.50830078125
0.50830078125
0.50830078125
0.50830078125
0.50830078125
0.50830078125
0.50830078125
0.50830078125
0.50830078125
0.50830078125
0.50830078125
0.50830078125
0.50830078125
0.50830078125
0.50830078125
0.504150390625
0.5
0.5
0.5
0.5
0.5
0.5
0.5
0.5
0.5
0.5
0.5
0.5
0.5
0.5
0.5
0.5
0.5
0.5
0.5
0.5
0.5
0.5
0.5
0.5
0.5
0.5
0.5
0.5
0.5
0.5
0.5
0.5
0.5
0.5
0.5
0.5
0.5
0.5
0.5
0.5
0.5
0.5
0.5
0.5
0.5
0.5
0.5
0.5
0.5
0.5
0.5
0.5
0.5
0.5
0.5
0.5
0.5
0.5
0.5
0.5
0.5
0.5
0.5
0.5
0.5
0.5
0.5
0.5
0.5
0.5
0.5
0.5
0.5
0.5
0.5
0.5
0.5
0.5
0.5
0.5
0.5
0.5
0.5
0.5
0.5
0.5
0.5
0.5
0.5
0.5
0.5
0.5
0.5
0.5
0.5
0.5
0.5
0.5
0.5
0.5
0.5
0.5
0.5
0.5
0.5
0.5
0.5
0.5
0.5
0.5
0.5
0.5
0.5
0.5
0.5
0.5
0.5
0.5
0.5
0.5
0.5
0.5
0.5
0.5
0.5
0.5
0.5
0.5
0.5
0.5
0.5
0.5
0.5
0.533203125
0.52490234375
0.52490234375
0.52490234375
0.52490234375
0.52490234375
0.5166015625
0.5166015625
0.5166015625
0.5166015625
0.5166015625
0.5166015625
0.5166015625
0.5166015625
0.512451171875
0.50830078125
0.50830078125
0.50830078125
0.50830078125
0.50830078125
0.512451171875
0.5166015625
0.5166015625
0.5166015625
0.5166015625
0.5166015625
0.5166015625
0.5166015625
0.5166015625
0.5166015625
0.5166015625
0.512451171875
0.50830078125
0.50830078125
0.50830078125
0.50830078125
0.50830078125
0.50830078125
0.50830078125
0.50830078125
0.50830078125
0.50830078125
0.50830078125
0.50830078125
0.50830078125
0.5
0.5
0.504150390625
0.50830078125
0.50830078125
0.50830078125
0.50830078125
0.50830078125
0.5
0.5
0.5
0.5
0.5
0.5
0.5
0.5
0.5
0.5
0.5
0.5
0.5
0.5
0.5
0.5
0.5
0.5
0.5
0.5
0.5
0.5
0.5
0.5
0.504150390625
0.50830078125
0.50830078125
0.50830078125
0.5
0.5
0.5
0.5
0.5
0.5
0.5
0.5
0.5
0.5
0.5
0.5
0.5
0.5
0.5
0.5
0.5
0.5
0.5
0.5
0.5
0.5
0.5
0.5
0.5
0.5
0.5
0.5
0.5
0.504150390625
0.50830078125
0.50830078125
0.50830078125
0.50830078125
0.50830078125
0.50830078125
0.50830078125
0.50830078125
0.50830078125
0.50830078125
0.50830078125
0.50830078125
0.50830078125
0.50830078125
0.50830078125
0.50830078125
0.50830078125
0.50830078125
0.50830078125
0.50830078125
0.50830078125
0.50830078125
0.50830078125
0.50830078125
0.50830078125
0.50830078125
0.50830078125
0.50830078125
0.50830078125
0.50830078125
0.50830078125
0.50830078125
0.50830078125
0.50830078125
0.50830078125
0.504150390625
0.5
0.5
0.5
0.5
0.5
0.5
0.5
0.5
0.5
0.5
0.5
0.5
0.5
0.5
0.5
0.5
0.49560546875
0.491455078125
0.491455078125
0.491455078125
0.491455078125
0.491455078125
0.491455078125
0.4873046875
0.483154296875
0.483154296875
0.483154296875
0.474853515625
0.474853515625
0.474853515625
0.470703125
0.466552734375
0.466552734375
0.466552734375
0.466552734375
0.466552734375
0.466552734375
0.466552734375
0.466552734375
0.5
0.5
0.5
0.5
0.5
0.5
0.5
0.5
0.5
0.5
0.5
0.5
0.5
0.5
0.5
0.5
0.5
0.5
0.5
0.5
0.5
0.5
0.5
0.5
0.5
0.5
0.5
0.5
0.5
0.5
0.5
0.5
0.5
0.5
0.5
0.5
0.5
0.5
0.5
0.5
0.5
0.5
0.5
0.5
0.5
0.5
0.5
0.5
0.5
0.5
0.5
0.5
0.5
0.5
0.5
0.5
0.5
0.5
0.5
0.5
0.5
0.5
0.5
0.5
0.5
0.5
0.5
0.5
0.5
0.5
0.5
0.5
0.5
0.5
0.5
0.5
0.5
0.5
0.5
0.5
0.5
0.5
0.5
0.5
0.5
0.5
0.5
0.5
0.5
0.5
0.5
0.5
0.5
0.5
0.5
0.5
0.5
0.5
0.5
0.5
0.5
0.5
0.5
0.5
0.5
0.5
0.5
0.5
0.5
0.5
0.5
0.5
0.5
0.5
0.5
0.5
0.5
0.5
0.5
0.5
0.5
0.5
0.5
0.5
0.5
0.5
0.5
0.5
0.5
0.5
0.5
0.5
0.5
0.5
0.5
0.5
0.5
0.5
0.5
0.5
0.5
0.5
0.5
0.5
0.5
0.5
0.5
0.5
0.5
0.5
0.5
0.5
0.5
0.5
0.5
0.5
0.5
0.5
0.5
0.5
0.5
0.5
0.5
0.5
0.5
0.5
0.5
0.5
0.5
0.5
0.5
0.5
0.5
0.5
0.5
0.5
0.5
0.5
0.5
0.5
0.5
0.5
0.5
0.5
0.5
0.5
0.5
0.5
0.5
0.5
0.5
0.5
0.5
0.5
0.5
0.5
0.5
0.5
0.5
0.5
0.5
0.5
0.5
0.5
0.5
0.5
0.5
0.5
0.5
0.5
0.5
0.5
0.5
0.5
0.5
0.5
0.5
0.5
0.5
0.5
0.5
0.5
0.5
0.5
0.5
0.5
0.5
0.5
0.5
0.5
0.5
0.5
0.5
0.5
0.5
0.5
0.5
0.5
0.5
0.5
0.5
0.5
0.5
0.5
0.5
0.5
0.5
0.5
0.5
0.5
0.5
0.5
0.5
0.5
0.5
0.5
0.5
0.5
0.5
0.5
0.5
0.5
0.5
0.5
0.5
0.5
0.5
0.5
0.5
0.5
0.5
0.5
0.5
0.5
0.5
0.5
0.5
0.5
0.5
0.5
0.5
0.5
0.5
0.5
0.5
0.5
0.5
0.5
0.5
0.5
0.5
0.5
0.5
0.5
0.5
0.5
0.5
0.5
0.5
0.5
0.5
0.5
0.5
0.5
0.5
0.5
0.5
0.5
0.5
0.5
0.50830078125
0.50830078125
0.5166015625
0.5166015625
0.5166015625
0.5166015625
0.52490234375
0.52490234375
0.52490234375
0.52490234375
0.52490234375
0.52490234375
0.52490234375
0.5166015625
0.5166015625
0.5166015625
0.5166015625
0.5166015625
0.5166015625
0.5166015625
0.512451171875
0.50830078125
0.50830078125
0.50830078125
0.50830078125
0.50830078125
0.50830078125
0.50830078125
0.50830078125
0.50830078125
0.5
0.5
0.5
0.5
0.5
0.5
0.5
0.5
0.5
0.5
0.5
0.5
0.5
0.5
0.5
0.5
0.5
0.5
0.5
0.5
0.5
0.5
0.5
0.50830078125
0.50830078125
0.50830078125
0.50830078125
0.504150390625
0.5
0.5
0.5
0.5
0.5
0.5
0.5
0.5
0.5
0.5
0.5
0.5
0.5
0.5
0.5
0.5
0.5
0.5
0.5
0.5
0.5
0.5
0.5
0.5
0.5
0.5
0.5
0.49560546875
0.491455078125
0.491455078125
0.491455078125
0.491455078125
0.491455078125
0.49560546875
0.5
0.5
0.5
0.5
0.5
0.5
0.5
0.5
0.5
0.5
0.5
0.5
0.5
0.5
0.5
0.5
0.5
0.5
0.5
0.5
0.5
0.5
0.5
0.5
0.5
0.5
0.5
0.5
0.5
0.5
0.5
0.5
0.5
0.5
0.5
0.5
0.5
0.5
0.5
0.5
0.5
0.5
0.5
0.5
0.5
0.5
0.5
0.5
0.5
0.5
0.5
0.5
0.5
0.5
0.5
0.5
0.5
0.5
0.5
0.5
0.5
0.5
0.5
0.5
0.5
0.5
0.5
0.5
0.5
0.5
0.5
0.5
0.5
0.5
0.5
0.5
0.5
0.5
0.5
0.5
0.5
0.5
0.5
0.5
0.5
0.5
0.5
0.5
0.5
0.5
0.5
0.5
0.5
0.5
0.5
0.5
0.5
0.5
0.5
0.5
0.5
0.5
0.5
0.5
0.5
0.5
0.5
0.5
0.5
0.5
0.5
0.5
0.5
0.5
0.5
0.5
0.5
0.5
0.5
0.5
0.5
0.5
0.5
0.5
0.5
0.5
0.5
0.5
0.5
0.5
0.5
0.5
0.5
0.5
0.5
0.5
0.5
0.5
0.5
0.5
0.5
0.5
0.5
0.5
0.5
0.5
0.5
0.5
0.5
0.5
0.5
0.5
0.5
0.5
0.5
0.5
0.5
0.5
0.5
0.5
0.5
0.5
0.5
0.5
0.5
0.5
0.5
0.5
0.5
0.5
0.5
0.5
0.5
0.5
0.5
0.5
0.5
0.5
0.5
0.5
0.5
0.5
0.5
0.5
0.5
0.5
0.5
0.5
0.5
0.5
0.5
0.5
0.5
0.5
0.5
0.5
0.5
0.5
0.5
0.5
0.5
0.5
0.5
0.5
0.5
0.5
0.5
0.5
0.5
0.5
0.5
0.5
0.5
0.5
0.5
0.5
0.5
0.5
0.504150390625
0.50830078125
0.50830078125
0.50830078125
0.50830078125
0.5
0.5
0.5
0.5
0.5
0.5
0.5
0.5
0.5
0.5
0.5
0.5
0.5
0.5
0.5
0.5
0.5
0.5
0.5
0.5
0.5
0.5
0.5
0.5
0.5
0.5
0.5
0.5
0.5
0.5
0.5
0.5
0.5
0.5
0.5
0.5
0.5
0.5
0.5
0.5
0.5
0.5
0.5
0.5
0.5
0.5
0.5
0.5
0.5
0.5
0.5
0.5
0.5
0.5
0.5
0.5
0.5
0.5
0.5
0.5
0.5
0.5
0.5
0.5
0.491455078125
0.491455078125
0.491455078125
0.491455078125
0.491455078125
0.491455078125
0.491455078125
0.491455078125
0.491455078125
0.491455078125
0.491455078125
0.491455078125
0.491455078125
0.491455078125
0.491455078125
0.491455078125
0.491455078125
0.491455078125
0.5
0.5
0.5
0.5
0.5
0.5
0.5
0.5
0.5
0.5
0.5
0.5
0.5
0.49560546875
0.491455078125
0.491455078125
0.491455078125
0.491455078125
0.483154296875
0.483154296875
0.483154296875
0.483154296875
0.483154296875
0.483154296875
0.474853515625
0.474853515625
0.474853515625
0.470703125
0.466552734375
0.466552734375
0.46240234375
0.458251953125
0.458251953125
0.458251953125
0.4541015625
0.5
0.5
0.5
0.5
0.5
0.5
0.5
0.5
0.5
0.5
0.5
0.5
0.5
0.5
0.5
0.5
0.5
0.5
0.5
0.5
0.5
0.5
0.5
0.5
0.5
0.5
0.5
0.5
0.5
0.5
0.5
0.5
0.5
0.5
0.5
0.5
0.5
0.5
0.5
0.5
0.5
0.5
0.5
0.5
0.5
0.5
0.5
0.5
0.5
0.5
0.5
0.5
0.5
0.5
0.5
0.5
0.5
0.5
0.5
0.5
0.5
0.5
0.5
0.5
0.5
0.5
0.5
0.5
0.5
0.5
0.5
0.5
0.5
0.5
0.5
0.5
0.5
0.5
0.5
0.5
0.5
0.5
0.5
0.5
0.5
0.5
0.5
0.5
0.5
0.5
0.5
0.5
0.5
0.5
0.5
0.5
0.5
0.5
0.5
0.5
0.5
0.5
0.5
0.5
0.5
0.5
0.5
0.5
0.5
0.5
0.5
0.5
0.5
0.5
0.5
0.5
0.5
0.5
0.5
0.5
0.5
0.5
0.5
0.5
0.5166015625
0.5166015625
0.5166015625
0.5166015625
0.5166015625
0.5166015625
0.5166015625
0.512451171875
0.50830078125
0.50830078125
0.50830078125
0.50830078125
0.50830078125
0.50830078125
0.50830078125
0.50830078125
0.5166015625
0.5166015625
0.5166015625
0.5166015625
0.5166015625
0.5166015625
0.5166015625
0.5166015625
0.5166015625
0.5166015625
0.5166015625
0.5166015625
0.5166015625
0.5166015625
0.5166015625
0.5166015625
0.5166015625
0.5166015625
0.5166015625
0.50830078125
0.50830078125
0.50830078125
0.50830078125
0.50830078125
0.50830078125
0.50830078125
0.50830078125
0.50830078125
0.50830078125
0.504150390625
0.5
0.5
0.5
0.5
0.5
0.5
0.5
0.5
0.5
0.5
0.5
0.5
0.504150390625
0.50830078125
0.50830078125
0.50830078125
0.50830078125
0.50830078125
0.50830078125
0.50830078125
0.50830078125
0.50830078125
0.50830078125
0.50830078125
0.50830078125
0.50830078125
0.50830078125
0.50830078125
0.5
0.5
0.5
0.5
0.5
0.5
0.5
0.5
0.5
0.5
0.5
0.5
0.5
0.5
0.5
0.5
0.5
0.5
0.5
0.5
0.5
0.5
0.5
0.5
0.5
0.5
0.5
0.5
0.5
0.5
0.5
0.5
0.5
0.5
0.5
0.5
0.5
0.5
0.5
0.5
0.5
0.5
0.5
0.5
0.5
0.5
0.5
0.5
0.5
0.5
0.5
0.5
0.5
0.5
0.5
0.5
0.5
0.5
0.5
0.5
0.5
0.5
0.5
0.5
0.5
0.5
0.5
0.5
0.5
0.5
0.5
0.5
0.5
0.5
0.5
0.5
0.5
0.5
0.5
0.5
0.5
0.5
0.5
0.5
0.5
0.5
0.5
0.5
0.5
0.5
0.5
0.5
0.5
0.5
0.5
0.5
0.5
0.5
0.5
0.5
0.5
0.5
0.5
0.5
0.5
0.5
0.5
0.5
0.5
0.5
0.5
0.5
0.5
0.5
0.5
0.5
0.5
0.5
0.5
0.5
0.5
0.5
0.5
0.5
0.5
0.5
0.5
0.5
0.5
0.5
0.5
0.5
0.5
0.5
0.5
0.5
0.5
0.5
0.5
0.5
0.5
0.5
0.5
0.5
0.5
0.5
0.5
0.5
0.5
0.5
0.5
0.5
0.5
0.5
0.5
0.5
0.5
0.5
0.5
0.5
0.5
0.5
0.5
0.5
0.5
0.5
0.5
0.5
0.5
0.5
0.5
0.5
0.5
0.5
0.5
0.5
0.5
0.5
0.5
0.5
0.5
0.5
0.5
0.5
0.5
0.5
0.5
0.5
0.5
0.5
0.5
0.5
0.5
0.5
0.5
0.5
0.5
0.5
0.5
0.5
0.5
0.5
0.5
0.5
0.5
0.5
0.5
0.5
0.5
0.5
0.5
0.5
0.5
0.5
0.5
0.5
0.5
0.5
0.5
0.5
0.5
0.5
0.5
0.5
0.5
0.5
0.5
0.5
0.5
0.5
0.5
0.5
0.5
0.5
0.5
0.5
0.50830078125
0.50830078125
0.50830078125
0.50830078125
0.50830078125
0.50830078125
0.504150390625
0.5
0.50830078125
0.50830078125
0.50830078125
0.50830078125
0.50830078125
0.50830078125
0.50830078125
0.50830078125
0.50830078125
0.50830078125
0.50830078125
0.50830078125
0.50830078125
0.50830078125
0.50830078125
0.5166015625
0.5166015625
0.5166015625
0.50830078125
0.50830078125
0.50830078125
0.50830078125
0.50830078125
0.50830078125
0.50830078125
0.50830078125
0.504150390625
0.5
0.5
0.5
0.5
0.5
0.5
0.5
0.5
0.5
0.5
0.5
0.5
0.5
0.5
0.5
0.5
0.5
0.5
0.5
0.5
0.5
0.5
0.5
0.50830078125
0.50830078125
0.50830078125
0.50830078125
0.50830078125
0.50830078125
0.50830078125
0.50830078125
0.50830078125
0.50830078125
0.50830078125
0.50830078125
0.512451171875
0.5166015625
0.5166015625
0.5166015625
0.5166015625
0.5166015625
0.512451171875
0.50830078125
0.50830078125
0.50830078125
0.50830078125
0.50830078125
0.5166015625
0.5166015625
0.5166015625
0.5166015625
0.5166015625
0.5166015625
0.5166015625
0.5166015625
0.5166015625
0.5166015625
0.52490234375
0.52490234375
0.52490234375
0.52490234375
0.52490234375
0.52490234375
0.52490234375
0.52490234375
0.52490234375
0.52490234375
0.52490234375
0.52490234375
0.52490234375
0.52490234375
0.533203125
0.533203125
0.533203125
0.533203125
0.533203125
0.533203125
0.533203125
0.533203125
0.533203125
0.529052734375
0.52490234375
0.520751953125
0.5166015625
0.5166015625
0.512451171875
0.50830078125
0.50830078125
0.50830078125
0.5
0.5
0.5
0.5
0.5
0.5
0.5
0.5
0.5
0.5
0.5
0.5
0.5
0.5
0.5
0.5
0.5
0.5
0.5
0.5
0.5
0.5
0.5
0.5
0.5
0.5
0.5
0.5
0.5
0.5
0.5
0.5
0.5
0.5
0.5
0.5
0.5
0.5
0.5
0.5
0.5
0.5
0.5
0.5
0.5
0.5
0.5
0.5
0.5
0.5
0.5
0.5
0.5
0.5
0.5
0.5
0.5
0.5
0.5
0.5
0.5
0.5
0.470703125
0.47900390625
0.491455078125
0.5
0.5
0.5
0.50830078125
0.50830078125
0.504150390625
0.5
0.5
0.5
0.5
0.5
0.5
0.5
0.5
0.49560546875
0.491455078125
0.491455078125
0.491455078125
0.491455078125
0.4873046875
0.483154296875
0.483154296875
0.47900390625
0.474853515625
0.474853515625
0.474853515625
0.474853515625
0.483154296875
0.491455078125
0.5
0.50830078125
0.520751953125
0.529052734375
0.533203125
0.533203125
0.533203125
0.52490234375
0.52490234375
0.5166015625
0.5166015625
0.5166015625
0.520751953125
0.529052734375
0.537353515625
0.5498046875
0.562255859375
0.574951171875
0.583251953125
0.591552734375
0.595703125
0.599853515625
0.591552734375
0.591552734375
0.58740234375
0.583251953125
0.574951171875
0.566650390625
0.562255859375
0.55810546875
0.553955078125
0.5498046875
0.545654296875
0.54150390625
0.537353515625
0.533203125
0.533203125
0.52490234375
0.533203125
0.533203125
0.533203125
0.54150390625
0.54150390625
0.54150390625
0.54150390625
0.54150390625
0.54150390625
0.54150390625
0.537353515625
0.533203125
0.529052734375
0.52490234375
0.5166015625
0.5166015625
0.5166015625
0.512451171875
0.50830078125
0.512451171875
0.5166015625
0.5166015625
0.5166015625
0.5166015625
0.5166015625
0.5166015625
0.520751953125
0.52490234375
0.52490234375
0.52490234375
0.5166015625
0.512451171875
0.50830078125
0.5
0.5
0.491455078125
0.491455078125
0.483154296875
0.483154296875
0.483154296875
0.483154296875
0.483154296875
0.483154296875
0.483154296875
0.4873046875
0.491455078125
0.491455078125
0.5
0.5
0.5
0.5
0.504150390625
0.50830078125
0.512451171875
0.5166015625
0.5166015625
0.5166015625
0.5166015625
0.5166015625
0.5166015625
0.5166015625
0.5166015625
0.52490234375
0.52490234375
0.52490234375
0.52490234375
0.52490234375
0.52490234375
0.52490234375
0.52490234375
0.52490234375
0.52490234375
0.52490234375
0.52490234375
0.52490234375
0.52490234375
0.52490234375
0.52490234375
0.52490234375
0.5166015625
0.5166015625
0.5166015625
0.512451171875
0.50830078125
0.50830078125
0.50830078125
0.50830078125
0.50830078125
0.5
0.5
0.5
0.5
0.5
0.5
0.5
0.5
0.5
0.5
0.5
0.5
0.5
0.5
0.5
0.5
0.5
0.5
0.5
0.5
0.5
0.5
0.5
0.5
0.5
0.49560546875
0.491455078125
0.491455078125
0.483154296875
0.483154296875
0.483154296875
0.483154296875
0.483154296875
0.474853515625
0.474853515625
0.474853515625
0.466552734375
0.466552734375
0.466552734375
0.458251953125
0.458251953125
0.4541015625
0.449951171875
0.449951171875
0.449951171875
0.449951171875
0.449951171875
0.441650390625
0.441650390625
0.441650390625
0.441650390625
0.433349609375
0.433349609375
0.433349609375
0.433349609375
0.433349609375
0.433349609375
0.441650390625
0.441650390625
0.449951171875
0.449951171875
0.458251953125
0.458251953125
0.466552734375
0.470703125
0.474853515625
0.483154296875
0.483154296875
0.483154296875
0.483154296875
0.474853515625
0.474853515625
0.466552734375
0.466552734375
0.470703125
0.474853515625
0.483154296875
0.491455078125
0.5
0.5
0.504150390625
0.50830078125
0.50830078125
0.50830078125
0.5
0.5
0.5
0.5
0.5
0.5
0.491455078125
0.491455078125
0.491455078125
0.491455078125
0.49560546875
0.5
0.5
0.5
0.5
0.5
0.5
0.5
0.5
0.5
0.5
0.5
0.5
0.5
0.5
0.5
0.5
0.5
0.5
0.5
0.5
0.5
0.5
0.5
0.5
0.5
0.5
0.5
0.5
0.5
0.5
0.5
0.5
0.5
0.5
0.5
0.5
0.5
0.5
0.5
0.5
0.5
0.5
0.5
0.5
0.5
0.5
0.5
0.5
0.5
0.5
0.5
0.491455078125
0.491455078125
0.5
0.5
0.5
0.5
0.5
0.5
0.5
0.5
0.5
0.5
0.5
0.5
0.5
0.5
0.5
0.504150390625
0.50830078125
0.50830078125
0.50830078125
0.50830078125
0.50830078125
0.5
0.5
0.5
0.5
0.5
0.5
0.5
0.5
0.5
0.5
0.5
0.5
0.5
0.5
0.5
0.5
0.5
0.5
0.5
0.5
0.5
0.5
0.5
0.5
0.5
0.5
0.5
0.5
0.5
0.50830078125
0.50830078125
0.50830078125
0.50830078125
0.50830078125
0.50830078125
0.50830078125
0.50830078125
0.50830078125
0.50830078125
0.50830078125
0.50830078125
0.50830078125
0.50830078125
0.50830078125
0.50830078125
0.504150390625
0.5
0.5
0.5
0.5
0.5
0.5
0.5
0.5
0.5
0.5
0.5
0.5
0.5
0.5
0.5
0.5
0.5
0.5
0.5
0.5
0.5
0.5
0.5
0.5
0.5
0.5
0.5
0.5
0.5
0.5
0.5
0.50830078125
0.50830078125
0.50830078125
0.50830078125
0.50830078125
0.50830078125
0.50830078125
0.50830078125
0.50830078125
0.50830078125
0.50830078125
0.50830078125
0.50830078125
0.50830078125
0.5
0.5
0.5
0.5
0.5
0.5
0.5
0.5
0.5
0.5
0.5
0.5
0.5
0.5
0.5
0.5
0.5
0.5
0.5
0.5
0.5
0.5
0.5
0.5
0.5
0.5
0.5
0.5
0.5
0.5
0.5
0.5
0.5
0.5
0.5
0.5
0.5
0.5
0.5
0.5
0.5
0.5
0.5
0.5
0.5
0.5
0.5
0.5
0.5
0.5
0.5
0.5
0.5
0.5
0.5
0.5
0.5
0.5
0.5
0.5
0.5
0.5
0.5
0.5
0.5
0.5
0.5
0.5
0.5
0.5
0.5
0.5
0.5
0.5
0.5
0.5
0.5
0.5
0.5
0.5
0.5
0.5
0.5
0.5
0.5
0.5
0.5
0.5
0.5
0.5
0.5
0.5
0.5
0.5
0.5
0.5
0.5
0.5
0.5
0.5
0.5
0.5
0.5
0.5
0.5
0.5
0.5
0.5
0.5
0.5
0.5
0.5
0.5
0.5
0.5
0.5
0.5
0.5
0.5
0.5
0.5
0.5
0.5
0.5
0.5
0.5
0.5
0.5
0.5
0.5
0.5
0.5
0.5
0.5
0.5
0.5
0.5
0.5
0.5
0.5
0.54150390625
0.54150390625
0.54150390625
0.533203125
0.533203125
0.533203125
0.533203125
0.533203125
0.533203125
0.533203125
0.533203125
0.533203125
0.533203125
0.54150390625
0.54150390625
0.54150390625
0.54150390625
0.54150390625
0.537353515625
0.533203125
0.533203125
0.533203125
0.533203125
0.529052734375
0.52490234375
0.52490234375
0.52490234375
0.520751953125
0.5166015625
0.5166015625
0.5166015625
0.5166015625
0.5166015625
0.5166015625
0.5166015625
0.5166015625
0.5166015625
0.5166015625
0.520751953125
0.52490234375
0.52490234375
0.533203125
0.533203125
0.537353515625
0.54150390625
0.54150390625
0.54150390625
0.545654296875
0.5498046875
0.5498046875
0.5498046875
0.5498046875
0.5498046875
0.5498046875
0.5498046875
0.5498046875
0.5498046875
0.5498046875
0.5498046875
0.5498046875
0.5498046875
0.545654296875
0.54150390625
0.533203125
0.529052734375
0.520751953125
0.5166015625
0.50830078125
0.50830078125
0.5
0.504150390625
0.50830078125
0.50830078125
0.512451171875
0.5166015625
0.5166015625
0.5166015625
0.5166015625
0.50830078125
0.50830078125
0.504150390625
0.5
0.5
0.5
0.5
0.5
0.5
0.491455078125
0.491455078125
0.491455078125
0.491455078125
0.491455078125
0.491455078125
0.483154296875
0.483154296875
0.483154296875
0.483154296875
0.483154296875
0.483154296875
0.483154296875
0.483154296875
0.483154296875
0.483154296875
0.491455078125
0.491455078125
0.491455078125
0.491455078125
0.491455078125
0.491455078125
0.491455078125
0.491455078125
0.491455078125
0.491455078125
0.491455078125
0.491455078125
0.491455078125
0.491455078125
0.491455078125
0.491455078125
0.491455078125
0.491455078125
0.483154296875
0.483154296875
0.483154296875
0.483154296875
0.483154296875
0.483154296875
0.483154296875
0.483154296875
0.483154296875
0.483154296875
0.483154296875
0.483154296875
0.483154296875
0.483154296875
0.47900390625
0.474853515625
0.474853515625
0.474853515625
0.474853515625
0.474853515625
0.474853515625
0.483154296875
0.4873046875
0.491455078125
0.49560546875
0.5
0.5
0.5
0.5
0.5
0.49560546875
0.491455078125
0.491455078125
0.491455078125
0.491455078125
0.483154296875
0.483154296875
0.474853515625
0.470703125
0.466552734375
0.46240234375
0.458251953125
0.458251953125
0.449951171875
0.449951171875
0.449951171875
0.449951171875
0.44580078125
0.441650390625
0.441650390625
0.441650390625
0.441650390625
0.441650390625
0.449951171875
0.449951171875
0.4541015625
0.458251953125
0.458251953125
0.458251953125
0.4541015625
0.449951171875
0.441650390625
0.441650390625
0.433349609375
0.433349609375
0.4375
0.441650390625
0.449951171875
0.46240234375
0.470703125
0.47900390625
0.4873046875
0.491455078125
0.5
0.5
0.5
0.49560546875
0.491455078125
0.491455078125
0.491455078125
0.491455078125
0.491455078125
0.491455078125
0.491455078125
0.49560546875
0.5
0.5
0.5
0.5
0.5
0.5
0.5
0.5
0.5
0.5
0.5
0.5
0.5
0.5
0.5
0.5
0.5
0.5
0.5
0.5
0.5
0.5
0.5
0.5
0.5
0.50830078125
0.50830078125
0.5166015625
0.5166015625
0.5166015625
0.5166015625
0.5166015625
0.5166015625
0.5166015625
0.5166015625
0.5166015625
0.5166015625
0.5166015625
0.5166015625
0.5166015625
0.5166015625
0.5166015625
0.52490234375
0.52490234375
0.52490234375
0.52490234375
0.52490234375
0.52490234375
0.5166015625
0.5166015625
0.5166015625
0.5166015625
0.5166015625
0.5166015625
0.5166015625
0.5166015625
0.5166015625
0.5166015625
0.5166015625
0.512451171875
0.50830078125
0.50830078125
0.50830078125
0.50830078125
0.50830078125
0.50830078125
0.50830078125
0.50830078125
0.512451171875
0.5166015625
0.5166015625
0.5166015625
0.5166015625
0.5166015625
0.5166015625
0.5166015625
0.5166015625
0.5166015625
0.5166015625
0.5166015625
0.5166015625
0.5166015625
0.5166015625
0.5166015625
0.5166015625
0.5166015625
0.5166015625
0.5166015625
0.5166015625
0.5166015625
0.5166015625
0.5166015625
0.5166015625
0.5166015625
0.5166015625
0.50830078125
0.50830078125
0.50830078125
0.50830078125
0.50830078125
0.50830078125
0.50830078125
0.50830078125
0.50830078125
0.50830078125
0.50830078125
0.50830078125
0.50830078125
0.50830078125
0.5166015625
0.5166015625
0.5166015625
0.5166015625
0.5166015625
0.5166015625
0.50830078125
0.5166015625
0.5166015625
0.5166015625
0.5166015625
0.5166015625
0.5166015625
0.5166015625
0.5166015625
0.50830078125
0.50830078125
0.50830078125
0.50830078125
0.50830078125
0.50830078125
0.50830078125
0.50830078125
0.50830078125
0.50830078125
0.504150390625
0.5
0.5
0.5
0.5
0.5
0.5
0.5
0.5
0.5
0.5
0.5
0.5
0.5
0.5
0.5
0.5
0.5
0.5
0.5
0.504150390625
0.50830078125
0.50830078125
0.50830078125
0.50830078125
0.50830078125
0.50830078125
0.50830078125
0.504150390625
0.5
0.5
0.5
0.5
0.5
0.5
0.5
0.5
0.5
0.5
0.5
0.5
0.5
0.5
0.5
0.5
0.5
0.5
0.5
0.5
0.5
0.5
0.5
0.5
0.5
0.5
0.5
0.5
0.5
0.5
0.5
0.5
0.5
0.5
0.5
0.5
0.5
0.5
0.5
0.5
0.5
0.5
0.5
0.5
0.5
0.5
0.5
0.5
0.5
0.5
0.5
0.5
0.5
0.5
0.5
0.5
0.5
0.5
0.5
0.5
0.5
0.5
0.5
0.5
0.5
0.5
0.5
0.5
0.5
0.5
0.5
0.5
0.5
0.5
0.5
0.5
0.5
0.5
0.5
0.5
0.5
0.5
0.5
0.5
0.5
0.5
0.5
0.5
0.5
0.5
0.5
0.5
0.5
0.5
0.5
0.5
0.5
0.5
0.5
0.5
0.5
0.5
0.5
0.5
0.5
0.5
0.5
0.5
0.5
0.5
0.5
0.5
0.5
0.5
0.5
0.5
0.5
0.5
0.5
0.5
0.5
0.5
0.5
0.5
0.5
0.5
0.5
0.5
0.5
0.5
0.5
0.5
0.5
0.5
0.5
0.5
0.5
0.5
0.5
0.5
0.5
0.5
0.5
0.5
0.5
0.5
0.5
0.5
0.5
0.5
0.5
0.5
0.5
0.5
0.5
0.5
0.5
0.5
0.5
0.5
0.5
0.5
0.5
0.5
0.5
0.5
0.5
0.5
0.5
0.5
0.5
0.5
0.5
0.5
0.5
0.5
0.5
0.5
0.5
0.5
0.5
0.5
0.5
0.5
0.5
0.5
0.5
0.5
0.5
0.5
0.5
0.5
0.5
0.5
0.5
0.5
0.5
0.5
0.5
0.5
0.5
0.5
0.5
0.5
0.5
0.5
0.5
0.5
0.5
0.5
0.5
0.5
0.5
0.5
0.5
0.5
0.5
0.5
0.5
0.5
0.5
0.5
0.5
0.5
0.5
0.5
0.5
0.5
0.5
0.5
0.5
0.5
0.5
0.5
0.5
0.5
